Date,0
2024-01-02 14:00:00+00:00,0.0
2024-01-02 15:00:00+00:00,0.0
2024-01-02 16:00:00+00:00,0.0
2024-01-02 17:00:00+00:00,0.0
2024-01-02 18:00:00+00:00,0.0
2024-01-02 19:00:00+00:00,0.0
2024-01-02 20:00:00+00:00,0.0
2024-01-03 14:00:00+00:00,0.0
2024-01-03 15:00:00+00:00,0.0
2024-01-03 16:00:00+00:00,0.0
2024-01-03 17:00:00+00:00,0.0
2024-01-03 18:00:00+00:00,0.0
2024-01-03 19:00:00+00:00,0.0
2024-01-03 20:00:00+00:00,0.0
2024-01-04 14:00:00+00:00,0.0
2024-01-04 15:00:00+00:00,0.0
2024-01-04 16:00:00+00:00,0.0
2024-01-04 17:00:00+00:00,0.0
2024-01-04 18:00:00+00:00,0.0
2024-01-04 19:00:00+00:00,0.0
2024-01-04 20:00:00+00:00,0.0
2024-01-05 14:00:00+00:00,0.0
2024-01-05 15:00:00+00:00,0.0
2024-01-05 16:00:00+00:00,0.0
2024-01-05 17:00:00+00:00,0.0
2024-01-05 18:00:00+00:00,0.0
2024-01-05 19:00:00+00:00,0.0
2024-01-05 20:00:00+00:00,0.0
2024-01-08 14:00:00+00:00,0.0
2024-01-08 15:00:00+00:00,0.0
2024-01-08 16:00:00+00:00,0.0
2024-01-08 17:00:00+00:00,0.0
2024-01-08 18:00:00+00:00,0.0
2024-01-08 19:00:00+00:00,0.0
2024-01-08 20:00:00+00:00,0.0
2024-01-09 14:00:00+00:00,0.0
2024-01-09 15:00:00+00:00,0.0
2024-01-09 16:00:00+00:00,0.0
2024-01-09 17:00:00+00:00,0.0
2024-01-09 18:00:00+00:00,0.0
2024-01-09 19:00:00+00:00,0.0
2024-01-09 20:00:00+00:00,0.0
2024-01-10 14:00:00+00:00,0.0
2024-01-10 15:00:00+00:00,0.0
2024-01-10 16:00:00+00:00,0.0
2024-01-10 17:00:00+00:00,0.0
2024-01-10 18:00:00+00:00,0.0
2024-01-10 19:00:00+00:00,0.0
2024-01-10 20:00:00+00:00,0.0
2024-01-11 14:00:00+00:00,0.0
2024-01-11 15:00:00+00:00,0.0
2024-01-11 16:00:00+00:00,0.0
2024-01-11 17:00:00+00:00,0.0
2024-01-11 18:00:00+00:00,0.0
2024-01-11 19:00:00+00:00,0.0
2024-01-11 20:00:00+00:00,0.0
2024-01-12 14:00:00+00:00,0.0
2024-01-12 15:00:00+00:00,0.0
2024-01-12 16:00:00+00:00,0.0
2024-01-12 17:00:00+00:00,0.0
2024-01-12 18:00:00+00:00,0.0
2024-01-12 19:00:00+00:00,0.0
2024-01-12 20:00:00+00:00,0.0
2024-01-16 14:00:00+00:00,0.0
2024-01-16 15:00:00+00:00,0.0
2024-01-16 16:00:00+00:00,0.0
2024-01-16 17:00:00+00:00,0.0
2024-01-16 18:00:00+00:00,0.0
2024-01-16 19:00:00+00:00,0.0
2024-01-16 20:00:00+00:00,0.0
2024-01-17 14:00:00+00:00,0.0
2024-01-17 15:00:00+00:00,0.0
2024-01-17 16:00:00+00:00,0.0
2024-01-17 17:00:00+00:00,0.0
2024-01-17 18:00:00+00:00,0.0
2024-01-17 19:00:00+00:00,0.0
2024-01-17 20:00:00+00:00,0.0
2024-01-18 14:00:00+00:00,0.0
2024-01-18 15:00:00+00:00,0.0
2024-01-18 16:00:00+00:00,0.0
2024-01-18 17:00:00+00:00,0.0
2024-01-18 18:00:00+00:00,0.0
2024-01-18 19:00:00+00:00,0.0
2024-01-18 20:00:00+00:00,0.0
2024-01-19 14:00:00+00:00,0.0
2024-01-19 15:00:00+00:00,0.0
2024-01-19 16:00:00+00:00,0.0
2024-01-19 17:00:00+00:00,0.0
2024-01-19 18:00:00+00:00,0.0
2024-01-19 19:00:00+00:00,0.0
2024-01-19 20:00:00+00:00,0.0
2024-01-22 14:00:00+00:00,0.0
2024-01-22 15:00:00+00:00,0.0
2024-01-22 16:00:00+00:00,0.0
2024-01-22 17:00:00+00:00,0.0
2024-01-22 18:00:00+00:00,0.0
2024-01-22 19:00:00+00:00,0.0
2024-01-22 20:00:00+00:00,0.0
2024-01-23 14:00:00+00:00,0.0
2024-01-23 15:00:00+00:00,0.0
2024-01-23 16:00:00+00:00,0.0
2024-01-23 17:00:00+00:00,0.0
2024-01-23 18:00:00+00:00,0.0
2024-01-23 19:00:00+00:00,0.0
2024-01-23 20:00:00+00:00,0.0
2024-01-24 14:00:00+00:00,0.0
2024-01-24 15:00:00+00:00,0.0
2024-01-24 16:00:00+00:00,0.0
2024-01-24 17:00:00+00:00,0.0
2024-01-24 18:00:00+00:00,0.0
2024-01-24 19:00:00+00:00,0.0
2024-01-24 20:00:00+00:00,0.0
2024-01-25 14:00:00+00:00,0.0
2024-01-25 15:00:00+00:00,0.0
2024-01-25 16:00:00+00:00,0.0
2024-01-25 17:00:00+00:00,0.0
2024-01-25 18:00:00+00:00,0.0
2024-01-25 19:00:00+00:00,0.0
2024-01-25 20:00:00+00:00,0.0
2024-01-26 14:00:00+00:00,0.0
2024-01-26 15:00:00+00:00,0.0
2024-01-26 16:00:00+00:00,0.0
2024-01-26 17:00:00+00:00,0.0
2024-01-26 18:00:00+00:00,0.0
2024-01-26 19:00:00+00:00,0.0
2024-01-26 20:00:00+00:00,0.0
2024-01-29 14:00:00+00:00,0.0
2024-01-29 15:00:00+00:00,0.0
2024-01-29 16:00:00+00:00,0.0
2024-01-29 17:00:00+00:00,0.0
2024-01-29 18:00:00+00:00,0.0
2024-01-29 19:00:00+00:00,0.0
2024-01-29 20:00:00+00:00,0.0
2024-01-30 14:00:00+00:00,0.0
2024-01-30 15:00:00+00:00,0.0
2024-01-30 16:00:00+00:00,0.0
2024-01-30 17:00:00+00:00,0.0
2024-01-30 18:00:00+00:00,0.0
2024-01-30 19:00:00+00:00,0.0
2024-01-30 20:00:00+00:00,0.0
2024-01-31 14:00:00+00:00,0.0
2024-01-31 15:00:00+00:00,0.0
2024-01-31 16:00:00+00:00,0.0
2024-01-31 17:00:00+00:00,0.0
2024-01-31 18:00:00+00:00,0.0
2024-01-31 19:00:00+00:00,0.0
2024-01-31 20:00:00+00:00,0.0
2024-02-01 14:00:00+00:00,0.0
2024-02-01 15:00:00+00:00,0.0
2024-02-01 16:00:00+00:00,0.0
2024-02-01 17:00:00+00:00,0.0
2024-02-01 18:00:00+00:00,0.0
2024-02-01 19:00:00+00:00,0.0
2024-02-01 20:00:00+00:00,0.0
2024-02-02 14:00:00+00:00,0.0
2024-02-02 15:00:00+00:00,0.0
2024-02-02 16:00:00+00:00,0.0
2024-02-02 17:00:00+00:00,0.0
2024-02-02 18:00:00+00:00,0.0
2024-02-02 19:00:00+00:00,0.0
2024-02-02 20:00:00+00:00,0.0
2024-02-05 14:00:00+00:00,0.0
2024-02-05 15:00:00+00:00,0.0
2024-02-05 16:00:00+00:00,0.0
2024-02-05 17:00:00+00:00,0.0
2024-02-05 18:00:00+00:00,0.0
2024-02-05 19:00:00+00:00,0.0
2024-02-05 20:00:00+00:00,0.0
2024-02-06 14:00:00+00:00,0.0
2024-02-06 15:00:00+00:00,0.0
2024-02-06 16:00:00+00:00,0.0
2024-02-06 17:00:00+00:00,0.0
2024-02-06 18:00:00+00:00,0.0
2024-02-06 19:00:00+00:00,0.0
2024-02-06 20:00:00+00:00,0.0
2024-02-07 14:00:00+00:00,0.0
2024-02-07 15:00:00+00:00,0.0
2024-02-07 16:00:00+00:00,0.0
2024-02-07 17:00:00+00:00,0.0
2024-02-07 18:00:00+00:00,0.0
2024-02-07 19:00:00+00:00,0.0
2024-02-07 20:00:00+00:00,0.0
2024-02-08 14:00:00+00:00,0.0
2024-02-08 15:00:00+00:00,0.0
2024-02-08 16:00:00+00:00,0.0
2024-02-08 17:00:00+00:00,0.0
2024-02-08 18:00:00+00:00,0.0
2024-02-08 19:00:00+00:00,0.0
2024-02-08 20:00:00+00:00,0.0
2024-02-09 14:00:00+00:00,0.0
2024-02-09 15:00:00+00:00,0.0
2024-02-09 16:00:00+00:00,0.0
2024-02-09 17:00:00+00:00,0.0
2024-02-09 18:00:00+00:00,0.0
2024-02-09 19:00:00+00:00,0.0
2024-02-09 20:00:00+00:00,0.0
2024-02-12 14:00:00+00:00,0.0
2024-02-12 15:00:00+00:00,0.0
2024-02-12 16:00:00+00:00,0.0
2024-02-12 17:00:00+00:00,0.0
2024-02-12 18:00:00+00:00,0.0
2024-02-12 19:00:00+00:00,0.0
2024-02-12 20:00:00+00:00,0.0
2024-02-13 14:00:00+00:00,0.0
2024-02-13 15:00:00+00:00,0.0
2024-02-13 16:00:00+00:00,0.0
2024-02-13 17:00:00+00:00,0.0
2024-02-13 18:00:00+00:00,0.0
2024-02-13 19:00:00+00:00,0.0
2024-02-13 20:00:00+00:00,0.0
2024-02-14 14:00:00+00:00,0.0
2024-02-14 15:00:00+00:00,0.0
2024-02-14 16:00:00+00:00,0.0
2024-02-14 17:00:00+00:00,0.0
2024-02-14 18:00:00+00:00,0.0
2024-02-14 19:00:00+00:00,0.0
2024-02-14 20:00:00+00:00,0.0
2024-02-15 14:00:00+00:00,0.0
2024-02-15 15:00:00+00:00,0.0
2024-02-15 16:00:00+00:00,0.0
2024-02-15 17:00:00+00:00,0.0
2024-02-15 18:00:00+00:00,0.0
2024-02-15 19:00:00+00:00,0.0
2024-02-15 20:00:00+00:00,0.0
2024-02-16 14:00:00+00:00,0.0
2024-02-16 15:00:00+00:00,0.0
2024-02-16 16:00:00+00:00,0.0
2024-02-16 17:00:00+00:00,0.0
2024-02-16 18:00:00+00:00,0.0
2024-02-16 19:00:00+00:00,0.0
2024-02-16 20:00:00+00:00,0.0
2024-02-20 14:00:00+00:00,0.0
2024-02-20 15:00:00+00:00,0.0
2024-02-20 16:00:00+00:00,0.0
2024-02-20 17:00:00+00:00,0.0
2024-02-20 18:00:00+00:00,0.0
2024-02-20 19:00:00+00:00,0.0
2024-02-20 20:00:00+00:00,0.0
2024-02-21 14:00:00+00:00,0.0
2024-02-21 15:00:00+00:00,0.0
2024-02-21 16:00:00+00:00,0.0
2024-02-21 17:00:00+00:00,0.0
2024-02-21 18:00:00+00:00,0.0
2024-02-21 19:00:00+00:00,0.0
2024-02-21 20:00:00+00:00,0.0
2024-02-22 14:00:00+00:00,0.0
2024-02-22 15:00:00+00:00,0.0
2024-02-22 16:00:00+00:00,0.0
2024-02-22 17:00:00+00:00,0.0
2024-02-22 18:00:00+00:00,0.0
2024-02-22 19:00:00+00:00,0.0
2024-02-22 20:00:00+00:00,0.0
2024-02-23 14:00:00+00:00,0.0
2024-02-23 15:00:00+00:00,0.0
2024-02-23 16:00:00+00:00,0.0
2024-02-23 17:00:00+00:00,0.0
2024-02-23 18:00:00+00:00,0.0
2024-02-23 19:00:00+00:00,0.0
2024-02-23 20:00:00+00:00,0.0
2024-02-26 14:00:00+00:00,0.0
2024-02-26 15:00:00+00:00,0.0
2024-02-26 16:00:00+00:00,0.0
2024-02-26 17:00:00+00:00,0.0
2024-02-26 18:00:00+00:00,0.0
2024-02-26 19:00:00+00:00,0.0
2024-02-26 20:00:00+00:00,0.0
2024-02-27 14:00:00+00:00,0.0
2024-02-27 15:00:00+00:00,0.0
2024-02-27 16:00:00+00:00,0.0
2024-02-27 17:00:00+00:00,0.0
2024-02-27 18:00:00+00:00,0.0
2024-02-27 19:00:00+00:00,0.0
2024-02-27 20:00:00+00:00,0.0
2024-02-28 14:00:00+00:00,0.0
2024-02-28 15:00:00+00:00,0.0
2024-02-28 16:00:00+00:00,0.0
2024-02-28 17:00:00+00:00,0.0
2024-02-28 18:00:00+00:00,0.0
2024-02-28 19:00:00+00:00,0.0
2024-02-28 20:00:00+00:00,0.0
2024-02-29 14:00:00+00:00,0.0
2024-02-29 15:00:00+00:00,0.0
2024-02-29 16:00:00+00:00,0.0
2024-02-29 17:00:00+00:00,0.0
2024-02-29 18:00:00+00:00,0.0
2024-02-29 19:00:00+00:00,0.0
2024-02-29 20:00:00+00:00,0.0
2024-03-01 14:00:00+00:00,0.0
2024-03-01 15:00:00+00:00,0.0
2024-03-01 16:00:00+00:00,0.0
2024-03-01 17:00:00+00:00,0.0
2024-03-01 18:00:00+00:00,0.0
2024-03-01 19:00:00+00:00,0.0
2024-03-01 20:00:00+00:00,0.0
2024-03-04 14:00:00+00:00,0.0
2024-03-04 15:00:00+00:00,0.0
2024-03-04 16:00:00+00:00,0.0
2024-03-04 17:00:00+00:00,0.0
2024-03-04 18:00:00+00:00,0.0
2024-03-04 19:00:00+00:00,0.0
2024-03-04 20:00:00+00:00,0.0
2024-03-05 14:00:00+00:00,0.0
2024-03-05 15:00:00+00:00,0.0
2024-03-05 16:00:00+00:00,0.0
2024-03-05 17:00:00+00:00,0.0
2024-03-05 18:00:00+00:00,0.0
2024-03-05 19:00:00+00:00,0.0
2024-03-05 20:00:00+00:00,0.0
2024-03-06 14:00:00+00:00,0.0
2024-03-06 15:00:00+00:00,0.0
2024-03-06 16:00:00+00:00,0.0
2024-03-06 17:00:00+00:00,0.0
2024-03-06 18:00:00+00:00,0.0
2024-03-06 19:00:00+00:00,0.0
2024-03-06 20:00:00+00:00,0.0
2024-03-07 14:00:00+00:00,0.0
2024-03-07 15:00:00+00:00,0.0
2024-03-07 16:00:00+00:00,0.0
2024-03-07 17:00:00+00:00,0.0
2024-03-07 18:00:00+00:00,0.0
2024-03-07 19:00:00+00:00,0.0
2024-03-07 20:00:00+00:00,0.0
2024-03-08 14:00:00+00:00,0.0
2024-03-08 15:00:00+00:00,0.0
2024-03-08 16:00:00+00:00,0.0
2024-03-08 17:00:00+00:00,0.0
2024-03-08 18:00:00+00:00,0.0
2024-03-08 19:00:00+00:00,0.0
2024-03-08 20:00:00+00:00,0.0
2024-03-11 13:00:00+00:00,0.0
2024-03-11 14:00:00+00:00,0.0
2024-03-11 15:00:00+00:00,0.0
2024-03-11 16:00:00+00:00,0.0
2024-03-11 17:00:00+00:00,0.0
2024-03-11 18:00:00+00:00,0.0
2024-03-11 19:00:00+00:00,0.0
2024-03-12 13:00:00+00:00,0.0
2024-03-12 14:00:00+00:00,0.0
2024-03-12 15:00:00+00:00,0.0
2024-03-12 16:00:00+00:00,0.0
2024-03-12 17:00:00+00:00,0.0
2024-03-12 18:00:00+00:00,0.0
2024-03-12 19:00:00+00:00,0.0
2024-03-13 13:00:00+00:00,0.0
2024-03-13 14:00:00+00:00,0.0
2024-03-13 15:00:00+00:00,0.0
2024-03-13 16:00:00+00:00,0.0
2024-03-13 17:00:00+00:00,0.0
2024-03-13 18:00:00+00:00,0.0
2024-03-13 19:00:00+00:00,0.0
2024-03-14 13:00:00+00:00,0.0
2024-03-14 14:00:00+00:00,0.0
2024-03-14 15:00:00+00:00,0.0
2024-03-14 16:00:00+00:00,0.0
2024-03-14 17:00:00+00:00,0.0
2024-03-14 18:00:00+00:00,0.0
2024-03-14 19:00:00+00:00,0.0
2024-03-15 13:00:00+00:00,0.0
2024-03-15 14:00:00+00:00,0.0
2024-03-15 15:00:00+00:00,0.0
2024-03-15 16:00:00+00:00,0.0
2024-03-15 17:00:00+00:00,0.0
2024-03-15 18:00:00+00:00,0.0
2024-03-15 19:00:00+00:00,0.0
2024-03-18 13:00:00+00:00,0.0
2024-03-18 14:00:00+00:00,0.0
2024-03-18 15:00:00+00:00,0.0
2024-03-18 16:00:00+00:00,0.0
2024-03-18 17:00:00+00:00,0.0
2024-03-18 18:00:00+00:00,0.0
2024-03-18 19:00:00+00:00,0.0
2024-03-19 13:00:00+00:00,0.0
2024-03-19 14:00:00+00:00,0.0
2024-03-19 15:00:00+00:00,0.0
2024-03-19 16:00:00+00:00,0.0
2024-03-19 17:00:00+00:00,0.0
2024-03-19 18:00:00+00:00,0.0
2024-03-19 19:00:00+00:00,0.0
2024-03-20 13:00:00+00:00,0.0
2024-03-20 14:00:00+00:00,0.0
2024-03-20 15:00:00+00:00,0.0
2024-03-20 16:00:00+00:00,0.0
2024-03-20 17:00:00+00:00,0.0
2024-03-20 18:00:00+00:00,0.0
2024-03-20 19:00:00+00:00,0.0
2024-03-21 13:00:00+00:00,0.0
2024-03-21 14:00:00+00:00,0.0
2024-03-21 15:00:00+00:00,0.0
2024-03-21 16:00:00+00:00,0.0
2024-03-21 17:00:00+00:00,0.0
2024-03-21 18:00:00+00:00,0.0
2024-03-21 19:00:00+00:00,0.0
2024-03-22 13:00:00+00:00,0.0
2024-03-22 14:00:00+00:00,0.0
2024-03-22 15:00:00+00:00,0.0
2024-03-22 16:00:00+00:00,0.0
2024-03-22 17:00:00+00:00,0.0
2024-03-22 18:00:00+00:00,0.0
2024-03-22 19:00:00+00:00,0.0
2024-03-25 13:00:00+00:00,0.0
2024-03-25 14:00:00+00:00,0.0
2024-03-25 15:00:00+00:00,0.0
2024-03-25 16:00:00+00:00,0.0
2024-03-25 17:00:00+00:00,0.0
2024-03-25 18:00:00+00:00,0.0
2024-03-25 19:00:00+00:00,0.0
2024-03-26 13:00:00+00:00,0.0
2024-03-26 14:00:00+00:00,0.0
2024-03-26 15:00:00+00:00,0.0
2024-03-26 16:00:00+00:00,0.0
2024-03-26 17:00:00+00:00,0.0
2024-03-26 18:00:00+00:00,0.0
2024-03-26 19:00:00+00:00,0.0
2024-03-27 13:00:00+00:00,0.0
2024-03-27 14:00:00+00:00,0.0
2024-03-27 15:00:00+00:00,0.0
2024-03-27 16:00:00+00:00,0.0
2024-03-27 17:00:00+00:00,0.0
2024-03-27 18:00:00+00:00,0.0
2024-03-27 19:00:00+00:00,0.0
2024-03-28 13:00:00+00:00,0.0
2024-03-28 14:00:00+00:00,0.0
2024-03-28 15:00:00+00:00,0.0
2024-03-28 16:00:00+00:00,0.0
2024-03-28 17:00:00+00:00,0.0
2024-03-28 18:00:00+00:00,0.0
2024-03-28 19:00:00+00:00,0.0
2024-04-01 13:00:00+00:00,0.0
2024-04-01 14:00:00+00:00,0.0
2024-04-01 15:00:00+00:00,0.0
2024-04-01 16:00:00+00:00,0.0
2024-04-01 17:00:00+00:00,0.0
2024-04-01 18:00:00+00:00,0.0
2024-04-01 19:00:00+00:00,0.0
2024-04-02 13:00:00+00:00,0.0
2024-04-02 14:00:00+00:00,0.0
2024-04-02 15:00:00+00:00,0.0
2024-04-02 16:00:00+00:00,0.0
2024-04-02 17:00:00+00:00,0.0
2024-04-02 18:00:00+00:00,0.0
2024-04-02 19:00:00+00:00,0.0
2024-04-03 13:00:00+00:00,0.0
2024-04-03 14:00:00+00:00,0.0
2024-04-03 15:00:00+00:00,0.0
2024-04-03 16:00:00+00:00,0.0
2024-04-03 17:00:00+00:00,0.0
2024-04-03 18:00:00+00:00,0.0
2024-04-03 19:00:00+00:00,0.0
2024-04-04 13:00:00+00:00,0.0
2024-04-04 14:00:00+00:00,0.0
2024-04-04 15:00:00+00:00,0.0
2024-04-04 16:00:00+00:00,0.0
2024-04-04 17:00:00+00:00,0.0
2024-04-04 18:00:00+00:00,0.0
2024-04-04 19:00:00+00:00,0.0
2024-04-05 13:00:00+00:00,0.0
2024-04-05 14:00:00+00:00,0.0
2024-04-05 15:00:00+00:00,0.0
2024-04-05 16:00:00+00:00,0.0
2024-04-05 17:00:00+00:00,0.0
2024-04-05 18:00:00+00:00,0.0
2024-04-05 19:00:00+00:00,0.0
2024-04-08 13:00:00+00:00,0.0
2024-04-08 14:00:00+00:00,0.0
2024-04-08 15:00:00+00:00,0.0
2024-04-08 16:00:00+00:00,0.0
2024-04-08 17:00:00+00:00,0.0
2024-04-08 18:00:00+00:00,0.0
2024-04-08 19:00:00+00:00,0.0
2024-04-09 13:00:00+00:00,0.0
2024-04-09 14:00:00+00:00,0.0
2024-04-09 15:00:00+00:00,0.0
2024-04-09 16:00:00+00:00,0.0
2024-04-09 17:00:00+00:00,0.0
2024-04-09 18:00:00+00:00,0.0
2024-04-09 19:00:00+00:00,0.0
2024-04-10 13:00:00+00:00,0.0
2024-04-10 14:00:00+00:00,0.0
2024-04-10 15:00:00+00:00,0.0
2024-04-10 16:00:00+00:00,0.0
2024-04-10 17:00:00+00:00,0.0
2024-04-10 18:00:00+00:00,0.0
2024-04-10 19:00:00+00:00,0.0
2024-04-11 13:00:00+00:00,0.0
2024-04-11 14:00:00+00:00,0.0
2024-04-11 15:00:00+00:00,0.0
2024-04-11 16:00:00+00:00,0.0
2024-04-11 17:00:00+00:00,0.0
2024-04-11 18:00:00+00:00,0.0
2024-04-11 19:00:00+00:00,0.0
2024-04-12 13:00:00+00:00,0.0
2024-04-12 14:00:00+00:00,0.0
2024-04-12 15:00:00+00:00,0.0
2024-04-12 16:00:00+00:00,0.0
2024-04-12 17:00:00+00:00,0.0
2024-04-12 18:00:00+00:00,0.0
2024-04-12 19:00:00+00:00,0.0
2024-04-15 13:00:00+00:00,0.0
2024-04-15 14:00:00+00:00,0.0
2024-04-15 15:00:00+00:00,0.0
2024-04-15 16:00:00+00:00,0.0
2024-04-15 17:00:00+00:00,0.0
2024-04-15 18:00:00+00:00,0.0
2024-04-15 19:00:00+00:00,0.0
2024-04-16 13:00:00+00:00,0.0
2024-04-16 14:00:00+00:00,0.0
2024-04-16 15:00:00+00:00,0.0
2024-04-16 16:00:00+00:00,0.0
2024-04-16 17:00:00+00:00,0.0
2024-04-16 18:00:00+00:00,0.0
2024-04-16 19:00:00+00:00,0.0
2024-04-17 13:00:00+00:00,0.0
2024-04-17 14:00:00+00:00,0.0
2024-04-17 15:00:00+00:00,0.0
2024-04-17 16:00:00+00:00,0.0
2024-04-17 17:00:00+00:00,0.0
2024-04-17 18:00:00+00:00,0.0
2024-04-17 19:00:00+00:00,0.0
2024-04-18 13:00:00+00:00,0.0
2024-04-18 14:00:00+00:00,0.0
2024-04-18 15:00:00+00:00,0.0
2024-04-18 16:00:00+00:00,0.0
2024-04-18 17:00:00+00:00,0.0
2024-04-18 18:00:00+00:00,0.0
2024-04-18 19:00:00+00:00,0.0
2024-04-19 13:00:00+00:00,0.0
2024-04-19 14:00:00+00:00,0.0
2024-04-19 15:00:00+00:00,0.0
2024-04-19 16:00:00+00:00,0.0
2024-04-19 17:00:00+00:00,0.0
2024-04-19 18:00:00+00:00,0.0
2024-04-19 19:00:00+00:00,0.0
2024-04-22 13:00:00+00:00,0.0
2024-04-22 14:00:00+00:00,0.0
2024-04-22 15:00:00+00:00,0.0
2024-04-22 16:00:00+00:00,0.0
2024-04-22 17:00:00+00:00,0.0
2024-04-22 18:00:00+00:00,0.0
2024-04-22 19:00:00+00:00,0.0
2024-04-23 13:00:00+00:00,0.0
2024-04-23 14:00:00+00:00,0.0
2024-04-23 15:00:00+00:00,0.0
2024-04-23 16:00:00+00:00,0.0
2024-04-23 17:00:00+00:00,0.0
2024-04-23 18:00:00+00:00,0.0
2024-04-23 19:00:00+00:00,0.0
2024-04-24 13:00:00+00:00,0.0
2024-04-24 14:00:00+00:00,0.0
2024-04-24 15:00:00+00:00,0.0
2024-04-24 16:00:00+00:00,0.0
2024-04-24 17:00:00+00:00,0.0
2024-04-24 18:00:00+00:00,0.0
2024-04-24 19:00:00+00:00,0.0
2024-04-25 13:00:00+00:00,0.0
2024-04-25 14:00:00+00:00,0.0
2024-04-25 15:00:00+00:00,0.0
2024-04-25 16:00:00+00:00,0.0
2024-04-25 17:00:00+00:00,0.0
2024-04-25 18:00:00+00:00,0.0
2024-04-25 19:00:00+00:00,0.0
2024-04-26 13:00:00+00:00,0.0
2024-04-26 14:00:00+00:00,0.0
2024-04-26 15:00:00+00:00,0.0
2024-04-26 16:00:00+00:00,0.0
2024-04-26 17:00:00+00:00,0.0
2024-04-26 18:00:00+00:00,0.0
2024-04-26 19:00:00+00:00,0.0
2024-04-29 13:00:00+00:00,0.0
2024-04-29 14:00:00+00:00,0.0
2024-04-29 15:00:00+00:00,0.0
2024-04-29 16:00:00+00:00,0.0
2024-04-29 17:00:00+00:00,0.0
2024-04-29 18:00:00+00:00,0.0
2024-04-29 19:00:00+00:00,0.0
2024-04-30 13:00:00+00:00,0.0
2024-04-30 14:00:00+00:00,0.0
2024-04-30 15:00:00+00:00,0.0
2024-04-30 16:00:00+00:00,0.0
2024-04-30 17:00:00+00:00,0.0
2024-04-30 18:00:00+00:00,0.0
2024-04-30 19:00:00+00:00,0.0
2024-05-01 13:00:00+00:00,0.0
2024-05-01 14:00:00+00:00,0.0
2024-05-01 15:00:00+00:00,0.0
2024-05-01 16:00:00+00:00,0.0
2024-05-01 17:00:00+00:00,0.0
2024-05-01 18:00:00+00:00,0.0
2024-05-01 19:00:00+00:00,0.0
2024-05-02 13:00:00+00:00,0.0
2024-05-02 14:00:00+00:00,0.0
2024-05-02 15:00:00+00:00,0.0
2024-05-02 16:00:00+00:00,0.0
2024-05-02 17:00:00+00:00,0.0
2024-05-02 18:00:00+00:00,0.0
2024-05-02 19:00:00+00:00,0.0
2024-05-03 13:00:00+00:00,0.0
2024-05-03 14:00:00+00:00,0.0
2024-05-03 15:00:00+00:00,0.0
2024-05-03 16:00:00+00:00,0.0
2024-05-03 17:00:00+00:00,0.0
2024-05-03 18:00:00+00:00,0.0
2024-05-03 19:00:00+00:00,0.0
2024-05-06 13:00:00+00:00,0.0
2024-05-06 14:00:00+00:00,0.0
2024-05-06 15:00:00+00:00,0.0
2024-05-06 16:00:00+00:00,0.0
2024-05-06 17:00:00+00:00,0.0
2024-05-06 18:00:00+00:00,0.0
2024-05-06 19:00:00+00:00,0.0
2024-05-07 13:00:00+00:00,0.0
2024-05-07 14:00:00+00:00,0.0
2024-05-07 15:00:00+00:00,0.0
2024-05-07 16:00:00+00:00,0.0
2024-05-07 17:00:00+00:00,0.0
2024-05-07 18:00:00+00:00,0.0
2024-05-07 19:00:00+00:00,0.0
2024-05-08 13:00:00+00:00,0.0
2024-05-08 14:00:00+00:00,0.0
2024-05-08 15:00:00+00:00,0.0
2024-05-08 16:00:00+00:00,0.0
2024-05-08 17:00:00+00:00,0.0
2024-05-08 18:00:00+00:00,0.0
2024-05-08 19:00:00+00:00,0.0
2024-05-09 13:00:00+00:00,0.0
2024-05-09 14:00:00+00:00,0.0
2024-05-09 15:00:00+00:00,0.0
2024-05-09 16:00:00+00:00,0.0
2024-05-09 17:00:00+00:00,0.0
2024-05-09 18:00:00+00:00,0.0
2024-05-09 19:00:00+00:00,0.0
2024-05-10 13:00:00+00:00,0.0
2024-05-10 14:00:00+00:00,0.0
2024-05-10 15:00:00+00:00,0.0
2024-05-10 16:00:00+00:00,0.0
2024-05-10 17:00:00+00:00,0.0
2024-05-10 18:00:00+00:00,0.0
2024-05-10 19:00:00+00:00,0.0
2024-05-13 13:00:00+00:00,0.0
2024-05-13 14:00:00+00:00,0.0
2024-05-13 15:00:00+00:00,0.0
2024-05-13 16:00:00+00:00,0.0
2024-05-13 17:00:00+00:00,0.0
2024-05-13 18:00:00+00:00,0.0
2024-05-13 19:00:00+00:00,0.0
2024-05-14 13:00:00+00:00,0.0
2024-05-14 14:00:00+00:00,0.0
2024-05-14 15:00:00+00:00,0.0
2024-05-14 16:00:00+00:00,0.0
2024-05-14 17:00:00+00:00,0.0
2024-05-14 18:00:00+00:00,0.0
2024-05-14 19:00:00+00:00,0.0
2024-05-15 13:00:00+00:00,0.0
2024-05-15 14:00:00+00:00,0.0
2024-05-15 15:00:00+00:00,0.0
2024-05-15 16:00:00+00:00,0.0
2024-05-15 17:00:00+00:00,0.0
2024-05-15 18:00:00+00:00,0.0
2024-05-15 19:00:00+00:00,0.0
2024-05-16 13:00:00+00:00,0.0
2024-05-16 14:00:00+00:00,0.0
2024-05-16 15:00:00+00:00,0.0
2024-05-16 16:00:00+00:00,0.0
2024-05-16 17:00:00+00:00,0.0
2024-05-16 18:00:00+00:00,0.0
2024-05-16 19:00:00+00:00,0.0
2024-05-17 13:00:00+00:00,0.0
2024-05-17 14:00:00+00:00,0.0
2024-05-17 15:00:00+00:00,0.0
2024-05-17 16:00:00+00:00,0.0
2024-05-17 17:00:00+00:00,0.0
2024-05-17 18:00:00+00:00,0.0
2024-05-17 19:00:00+00:00,0.0
2024-05-20 13:00:00+00:00,0.0
2024-05-20 14:00:00+00:00,0.0
2024-05-20 15:00:00+00:00,0.0
2024-05-20 16:00:00+00:00,0.0
2024-05-20 17:00:00+00:00,0.0
2024-05-20 18:00:00+00:00,0.0
2024-05-20 19:00:00+00:00,0.0
2024-05-21 13:00:00+00:00,0.0
2024-05-21 14:00:00+00:00,0.0
2024-05-21 15:00:00+00:00,0.0
2024-05-21 16:00:00+00:00,0.0
2024-05-21 17:00:00+00:00,0.0
2024-05-21 18:00:00+00:00,0.0
2024-05-21 19:00:00+00:00,0.0
2024-05-22 13:00:00+00:00,0.0
2024-05-22 14:00:00+00:00,0.0
2024-05-22 15:00:00+00:00,0.0
2024-05-22 16:00:00+00:00,0.0
2024-05-22 17:00:00+00:00,0.0
2024-05-22 18:00:00+00:00,0.0
2024-05-22 19:00:00+00:00,0.0
2024-05-23 13:00:00+00:00,0.0
2024-05-23 14:00:00+00:00,0.0
2024-05-23 15:00:00+00:00,0.0
2024-05-23 16:00:00+00:00,0.0
2024-05-23 17:00:00+00:00,0.0
2024-05-23 18:00:00+00:00,0.0
2024-05-23 19:00:00+00:00,0.0
2024-05-24 13:00:00+00:00,0.0
2024-05-24 14:00:00+00:00,0.0
2024-05-24 15:00:00+00:00,0.0
2024-05-24 16:00:00+00:00,0.0
2024-05-24 17:00:00+00:00,0.0
2024-05-24 18:00:00+00:00,0.0
2024-05-24 19:00:00+00:00,0.0
2024-05-28 13:00:00+00:00,0.0
2024-05-28 14:00:00+00:00,0.0
2024-05-28 15:00:00+00:00,0.0
2024-05-28 16:00:00+00:00,0.0
2024-05-28 17:00:00+00:00,0.0
2024-05-28 18:00:00+00:00,0.0
2024-05-28 19:00:00+00:00,0.0
2024-05-29 13:00:00+00:00,0.0
2024-05-29 14:00:00+00:00,0.0
2024-05-29 15:00:00+00:00,0.0
2024-05-29 16:00:00+00:00,0.0
2024-05-29 17:00:00+00:00,0.0
2024-05-29 18:00:00+00:00,0.0
2024-05-29 19:00:00+00:00,0.0
2024-05-30 13:00:00+00:00,0.0
2024-05-30 14:00:00+00:00,0.0
2024-05-30 15:00:00+00:00,0.0
2024-05-30 16:00:00+00:00,0.0
2024-05-30 17:00:00+00:00,0.0
2024-05-30 18:00:00+00:00,0.0
2024-05-30 19:00:00+00:00,0.0
2024-05-31 13:00:00+00:00,0.0
2024-05-31 14:00:00+00:00,0.0
2024-05-31 15:00:00+00:00,0.0
2024-05-31 16:00:00+00:00,0.0
2024-05-31 17:00:00+00:00,0.0
2024-05-31 18:00:00+00:00,0.0
2024-05-31 19:00:00+00:00,0.0
2024-06-03 13:00:00+00:00,0.0
2024-06-03 14:00:00+00:00,0.0
2024-06-03 15:00:00+00:00,0.0
2024-06-03 16:00:00+00:00,0.0
2024-06-03 17:00:00+00:00,0.0
2024-06-03 18:00:00+00:00,0.0
2024-06-03 19:00:00+00:00,0.0
2024-06-04 13:00:00+00:00,0.0
2024-06-04 14:00:00+00:00,0.0
2024-06-04 15:00:00+00:00,0.0
2024-06-04 16:00:00+00:00,0.0
2024-06-04 17:00:00+00:00,0.0
2024-06-04 18:00:00+00:00,0.0
2024-06-04 19:00:00+00:00,0.0
2024-06-05 13:00:00+00:00,0.0
2024-06-05 14:00:00+00:00,0.0
2024-06-05 17:00:00+00:00,0.0
2024-06-05 19:00:00+00:00,0.0
2024-06-06 13:00:00+00:00,0.0
2024-06-06 14:00:00+00:00,0.0
2024-06-07 13:00:00+00:00,0.0
2024-06-07 14:00:00+00:00,0.0
2024-06-07 15:00:00+00:00,0.0
2024-06-07 16:00:00+00:00,0.0
2024-06-07 17:00:00+00:00,0.0
2024-06-07 18:00:00+00:00,0.0
2024-06-07 19:00:00+00:00,0.0
2024-06-10 13:00:00+00:00,0.0
2024-06-10 14:00:00+00:00,0.0
2024-06-10 16:00:00+00:00,0.0
2024-06-10 17:00:00+00:00,0.0
2024-06-10 18:00:00+00:00,0.0
2024-06-10 19:00:00+00:00,0.0
2024-06-11 13:00:00+00:00,0.0
2024-06-11 14:00:00+00:00,0.0
2024-06-11 15:00:00+00:00,0.0
2024-06-11 17:00:00+00:00,0.0
2024-06-11 18:00:00+00:00,0.0
2024-06-11 19:00:00+00:00,0.0
2024-06-12 13:00:00+00:00,0.0
2024-06-12 15:00:00+00:00,0.0
2024-06-12 18:00:00+00:00,0.0
2024-06-12 19:00:00+00:00,0.0
2024-06-13 13:00:00+00:00,0.0
2024-06-13 14:00:00+00:00,0.0
2024-06-13 15:00:00+00:00,0.0
2024-06-13 17:00:00+00:00,0.0
2024-06-13 18:00:00+00:00,0.0
2024-06-13 19:00:00+00:00,0.0
2024-06-14 13:00:00+00:00,0.0
2024-06-14 14:00:00+00:00,0.0
2024-06-14 15:00:00+00:00,0.0
2024-06-14 17:00:00+00:00,0.0
2024-06-14 19:00:00+00:00,0.0
2024-06-17 13:00:00+00:00,0.0
2024-06-17 14:00:00+00:00,0.0
2024-06-17 16:00:00+00:00,0.0
2024-06-17 17:00:00+00:00,0.0
2024-06-17 18:00:00+00:00,0.0
2024-06-17 19:00:00+00:00,0.0
2024-06-18 15:00:00+00:00,0.0
2024-06-18 16:00:00+00:00,0.0
2024-06-18 17:00:00+00:00,0.0
2024-06-18 18:00:00+00:00,0.0
2024-06-18 19:00:00+00:00,0.0
2024-06-20 13:00:00+00:00,0.0
2024-06-20 15:00:00+00:00,0.0
2024-06-20 16:00:00+00:00,0.0
2024-06-20 17:00:00+00:00,0.0
2024-06-20 18:00:00+00:00,0.0
2024-06-21 13:00:00+00:00,0.0
2024-06-21 17:00:00+00:00,0.0
2024-06-21 19:00:00+00:00,0.0
2024-06-24 13:00:00+00:00,0.0
2024-06-24 14:00:00+00:00,0.0
2024-06-24 15:00:00+00:00,0.0
2024-06-24 19:00:00+00:00,0.0
2024-06-25 13:00:00+00:00,0.0
2024-06-25 14:00:00+00:00,0.0
2024-06-25 15:00:00+00:00,0.0
2024-06-25 16:00:00+00:00,0.0
2024-06-25 17:00:00+00:00,0.0
2024-06-25 19:00:00+00:00,0.0
2024-06-26 13:00:00+00:00,0.0
2024-06-26 14:00:00+00:00,0.0
2024-06-26 15:00:00+00:00,0.0
2024-06-26 16:00:00+00:00,0.0
2024-06-26 18:00:00+00:00,0.0
2024-06-26 19:00:00+00:00,0.0
2024-06-27 14:00:00+00:00,0.0
2024-06-27 18:00:00+00:00,0.0
2024-06-27 19:00:00+00:00,0.0
2024-06-28 13:00:00+00:00,0.0
2024-06-28 15:00:00+00:00,0.0
2024-06-28 17:00:00+00:00,0.0
2024-06-28 18:00:00+00:00,0.0
2024-06-28 19:00:00+00:00,0.0
2024-07-01 13:00:00+00:00,0.0
2024-07-01 14:00:00+00:00,0.0
2024-07-01 15:00:00+00:00,0.0
2024-07-01 17:00:00+00:00,0.0
2024-07-01 18:00:00+00:00,0.0
2024-07-02 13:00:00+00:00,0.0
2024-07-02 16:00:00+00:00,0.0
2024-07-02 18:00:00+00:00,0.0
2024-07-02 19:00:00+00:00,0.0
2024-07-03 13:00:00+00:00,0.0
2024-07-03 14:00:00+00:00,0.0
2024-07-03 15:00:00+00:00,0.0
2024-07-05 13:00:00+00:00,0.0
2024-07-05 15:00:00+00:00,0.0
2024-07-05 16:00:00+00:00,0.0
2024-07-05 18:00:00+00:00,0.0
2024-07-05 19:00:00+00:00,0.0
2024-07-08 13:00:00+00:00,0.0
2024-07-08 14:00:00+00:00,0.0
2024-07-08 15:00:00+00:00,0.0
2024-07-08 16:00:00+00:00,0.0
2024-07-08 17:00:00+00:00,0.0
2024-07-08 18:00:00+00:00,0.0
2024-07-08 19:00:00+00:00,0.0
2024-07-09 13:00:00+00:00,0.0
2024-07-09 14:00:00+00:00,0.0
2024-07-09 16:00:00+00:00,0.0
2024-07-09 17:00:00+00:00,0.0
2024-07-09 18:00:00+00:00,0.0
2024-07-10 13:00:00+00:00,0.0
2024-07-10 14:00:00+00:00,0.0
2024-07-10 15:00:00+00:00,0.0
2024-07-10 16:00:00+00:00,0.0
2024-07-10 17:00:00+00:00,0.0
2024-07-10 18:00:00+00:00,0.0
2024-07-10 19:00:00+00:00,0.0
2024-07-11 13:00:00+00:00,0.0
2024-07-11 14:00:00+00:00,0.0
2024-07-11 15:00:00+00:00,0.0
2024-07-11 16:00:00+00:00,0.0
2024-07-11 17:00:00+00:00,0.0
2024-07-11 18:00:00+00:00,0.0
2024-07-12 13:00:00+00:00,0.0
2024-07-12 14:00:00+00:00,0.0
2024-07-12 16:00:00+00:00,0.0
2024-07-15 14:00:00+00:00,0.0
2024-07-15 15:00:00+00:00,0.0
2024-07-15 16:00:00+00:00,0.0
2024-07-15 17:00:00+00:00,0.0
2024-07-15 18:00:00+00:00,0.0
2024-07-15 19:00:00+00:00,0.0
2024-07-16 13:00:00+00:00,0.0
2024-07-16 14:00:00+00:00,0.0
2024-07-16 17:00:00+00:00,0.0
2024-07-16 18:00:00+00:00,0.0
2024-07-16 19:00:00+00:00,0.0
2024-07-17 13:00:00+00:00,0.0
2024-07-17 14:00:00+00:00,0.0
2024-07-17 16:00:00+00:00,0.0
2024-07-17 17:00:00+00:00,0.0
2024-07-17 18:00:00+00:00,0.0
2024-07-17 19:00:00+00:00,0.0
2024-07-18 13:00:00+00:00,0.0
2024-07-18 14:00:00+00:00,0.0
2024-07-18 18:00:00+00:00,0.0
2024-07-18 19:00:00+00:00,0.0
2024-07-19 13:00:00+00:00,0.0
2024-07-19 14:00:00+00:00,0.0
2024-07-19 15:00:00+00:00,0.0
2024-07-19 17:00:00+00:00,0.0
2024-07-19 19:00:00+00:00,0.0
2024-07-22 13:00:00+00:00,0.0
2024-07-22 14:00:00+00:00,0.0
2024-07-22 15:00:00+00:00,0.0
2024-07-22 18:00:00+00:00,0.0
2024-07-22 19:00:00+00:00,0.0
2024-07-23 13:00:00+00:00,0.0
2024-07-23 15:00:00+00:00,0.0
2024-07-23 18:00:00+00:00,0.0
2024-07-23 19:00:00+00:00,0.0
2024-07-24 13:00:00+00:00,0.0
2024-07-24 14:00:00+00:00,0.0
2024-07-24 15:00:00+00:00,0.0
2024-07-24 16:00:00+00:00,0.0
2024-07-24 17:00:00+00:00,0.0
2024-07-24 18:00:00+00:00,0.0
2024-07-24 19:00:00+00:00,0.0
2024-07-25 13:00:00+00:00,0.0
2024-07-25 14:00:00+00:00,0.0
2024-07-25 15:00:00+00:00,0.0
2024-07-25 16:00:00+00:00,0.0
2024-07-25 17:00:00+00:00,0.0
2024-07-25 18:00:00+00:00,0.0
2024-07-25 19:00:00+00:00,0.0
2024-07-26 13:00:00+00:00,0.0
2024-07-26 14:00:00+00:00,0.0
2024-07-26 15:00:00+00:00,0.0
2024-07-26 16:00:00+00:00,0.0
2024-07-26 17:00:00+00:00,0.0
2024-07-26 18:00:00+00:00,0.0
2024-07-26 19:00:00+00:00,0.0
2024-07-29 13:00:00+00:00,0.0
2024-07-29 14:00:00+00:00,0.0
2024-07-29 15:00:00+00:00,0.0
2024-07-29 16:00:00+00:00,0.0
2024-07-29 18:00:00+00:00,0.0
2024-07-30 13:00:00+00:00,0.0
2024-07-30 14:00:00+00:00,0.0
2024-07-30 15:00:00+00:00,0.0
2024-07-30 16:00:00+00:00,0.0
2024-07-30 17:00:00+00:00,0.0
2024-07-30 18:00:00+00:00,0.0
2024-07-30 19:00:00+00:00,0.0
2024-07-31 13:00:00+00:00,0.0
2024-07-31 14:00:00+00:00,0.0
2024-07-31 16:00:00+00:00,0.0
2024-07-31 17:00:00+00:00,0.0
2024-07-31 18:00:00+00:00,0.0
2024-07-31 19:00:00+00:00,0.0
2024-08-01 13:00:00+00:00,0.0
2024-08-01 14:00:00+00:00,0.0
2024-08-01 15:00:00+00:00,0.0
2024-08-01 16:00:00+00:00,0.0
2024-08-01 17:00:00+00:00,0.0
2024-08-01 18:00:00+00:00,0.0
2024-08-01 19:00:00+00:00,0.0
2024-08-02 13:00:00+00:00,0.0
2024-08-02 14:00:00+00:00,0.0
2024-08-02 15:00:00+00:00,0.0
2024-08-02 16:00:00+00:00,0.0
2024-08-02 17:00:00+00:00,0.0
2024-08-02 19:00:00+00:00,0.0
2024-08-05 13:00:00+00:00,-186.1564053036601
2024-08-05 14:00:00+00:00,-143.0825422479731
2024-08-05 15:00:00+00:00,-156.2756000997421
2024-08-05 16:00:00+00:00,-148.37093953428524
2024-08-05 17:00:00+00:00,-150.21877514374984
2024-08-05 18:00:00+00:00,-143.0840917696907
2024-08-05 19:00:00+00:00,-148.47509002444554
2024-08-06 13:00:00+00:00,-219.1125074480916
2024-08-06 14:00:00+00:00,-175.06720321635956
2024-08-06 15:00:00+00:00,-129.78696174911278
2024-08-06 16:00:00+00:00,-123.72941956297406
2024-08-06 17:00:00+00:00,-128.2976689417404
2024-08-06 18:00:00+00:00,-145.7018262492032
2024-08-06 19:00:00+00:00,-120.75306396001952
2024-08-07 13:00:00+00:00,-10.014364391321578
2024-08-07 14:00:00+00:00,9.54411687325403
2024-08-07 15:00:00+00:00,-29.06262657173983
2024-08-07 16:00:00+00:00,-77.73205091026686
2024-08-07 17:00:00+00:00,-91.38931483593058
2024-08-07 19:00:00+00:00,-97.55021196073147
2024-08-08 13:00:00+00:00,-82.50565886861287
2024-08-08 14:00:00+00:00,-35.634240855699765
2024-08-08 15:00:00+00:00,-19.46339294068118
2024-08-08 16:00:00+00:00,-35.49052117853404
2024-08-08 17:00:00+00:00,-1.7519933153463114
2024-08-08 18:00:00+00:00,-11.40328140084572
2024-08-08 19:00:00+00:00,4.099473061066572
2024-08-09 13:00:00+00:00,-71.05783565786747
2024-08-09 14:00:00+00:00,-56.22082957584265
2024-08-09 15:00:00+00:00,-53.5004158065406
2024-08-09 16:00:00+00:00,-58.633283797125586
2024-08-09 17:00:00+00:00,-52.52515835691361
2024-08-09 18:00:00+00:00,-54.11633490257896
2024-08-12 14:00:00+00:00,-61.9213369003342
2024-08-12 16:00:00+00:00,-70.95670588979665
2024-08-12 17:00:00+00:00,-66.74771654326928
2024-08-12 18:00:00+00:00,-60.17618058065914
2024-08-12 19:00:00+00:00,-82.25126655667813
2024-08-13 13:00:00+00:00,-9.455111574807162
2024-08-13 16:00:00+00:00,27.575884630462284
2024-08-13 18:00:00+00:00,33.5674509966628
2024-08-13 19:00:00+00:00,59.03024864359158
2024-08-14 13:00:00+00:00,4.9207507366841625
2024-08-14 14:00:00+00:00,-18.59161033234058
2024-08-14 15:00:00+00:00,-10.634853731166864
2024-08-14 18:00:00+00:00,-12.983179672117842
2024-08-14 19:00:00+00:00,-26.085553738638538
2024-08-15 13:00:00+00:00,115.40279124157973
2024-08-15 14:00:00+00:00,117.76541617901172
2024-08-15 16:00:00+00:00,102.77597984469651
2024-08-15 17:00:00+00:00,121.35920365964668
2024-08-15 18:00:00+00:00,121.25652436985715
2024-08-16 13:00:00+00:00,188.5069840928212
2024-08-16 14:00:00+00:00,248.0075585758292
2024-08-16 15:00:00+00:00,231.83595669058985
2024-08-16 17:00:00+00:00,245.69770532298583
2024-08-16 18:00:00+00:00,252.57652518474256
2024-08-16 19:00:00+00:00,248.0595762901958
2024-08-19 13:00:00+00:00,411.15269210724193
2024-08-19 14:00:00+00:00,423.0701915483815
2024-08-19 19:00:00+00:00,413.162244399083
2024-08-20 13:00:00+00:00,487.70355570062907
2024-08-20 15:00:00+00:00,490.32136850149107
2024-08-20 17:00:00+00:00,490.9885880817491
2024-08-20 18:00:00+00:00,490.32136850149107
2024-08-21 13:00:00+00:00,662.8688679629711
2024-08-21 14:00:00+00:00,662.8688679629711
2024-08-21 15:00:00+00:00,662.8688679629711
2024-08-21 16:00:00+00:00,662.8688679629711
2024-08-21 17:00:00+00:00,662.8688679629711
2024-08-21 19:00:00+00:00,662.8688679629711
2024-08-22 13:00:00+00:00,662.8688679629711
2024-08-22 14:00:00+00:00,662.8688679629711
2024-08-22 15:00:00+00:00,662.8688679629711
2024-08-22 17:00:00+00:00,662.8688679629711
2024-08-22 19:00:00+00:00,662.8688679629711
2024-08-23 13:00:00+00:00,662.8688679629711
2024-08-23 14:00:00+00:00,662.8688679629711
2024-08-23 15:00:00+00:00,662.8688679629711
2024-08-23 16:00:00+00:00,662.8688679629711
2024-08-23 17:00:00+00:00,662.8688679629711
2024-08-23 18:00:00+00:00,662.8688679629711
2024-08-26 13:00:00+00:00,662.8688679629711
2024-08-26 14:00:00+00:00,662.8688679629711
2024-08-26 15:00:00+00:00,662.8688679629711
2024-08-26 18:00:00+00:00,662.8688679629711
2024-08-26 19:00:00+00:00,662.8688679629711
2024-08-27 13:00:00+00:00,662.8688679629711
2024-08-27 14:00:00+00:00,662.8688679629711
2024-08-27 16:00:00+00:00,662.8688679629711
2024-08-27 19:00:00+00:00,662.8688679629711
2024-08-28 16:00:00+00:00,662.8688679629711
2024-08-28 17:00:00+00:00,662.8688679629711
2024-08-28 19:00:00+00:00,662.8688679629711
2024-08-29 13:00:00+00:00,662.8688679629711
2024-08-29 14:00:00+00:00,662.8688679629711
2024-08-29 15:00:00+00:00,662.8688679629711
2024-08-29 16:00:00+00:00,662.8688679629711
2024-08-29 17:00:00+00:00,662.8688679629711
2024-08-29 19:00:00+00:00,662.8688679629711
2024-08-30 13:00:00+00:00,662.8688679629711
2024-08-30 14:00:00+00:00,662.8688679629711
2024-08-30 16:00:00+00:00,662.8688679629711
2024-08-30 19:00:00+00:00,662.8688679629711
2024-09-03 13:00:00+00:00,662.8688679629711
2024-09-03 14:00:00+00:00,662.8688679629711
2024-09-03 16:00:00+00:00,662.8688679629711
2024-09-03 17:00:00+00:00,662.8688679629711
2024-09-03 19:00:00+00:00,662.8688679629711
2024-09-04 13:00:00+00:00,662.8688679629711
2024-09-04 14:00:00+00:00,662.8688679629711
2024-09-04 19:00:00+00:00,662.8688679629711
2024-09-05 13:00:00+00:00,662.8688679629711
2024-09-05 14:00:00+00:00,662.8688679629711
2024-09-05 15:00:00+00:00,662.8688679629711
2024-09-05 16:00:00+00:00,662.8688679629711
2024-09-05 17:00:00+00:00,662.8688679629711
2024-09-05 19:00:00+00:00,662.8688679629711
2024-09-06 13:00:00+00:00,662.8688679629711
2024-09-06 14:00:00+00:00,662.8688679629711
2024-09-06 16:00:00+00:00,662.8688679629711
2024-09-06 18:00:00+00:00,662.8688679629711
2024-09-06 19:00:00+00:00,662.8688679629711
2024-09-09 13:00:00+00:00,662.8688679629711
2024-09-09 14:00:00+00:00,662.8688679629711
2024-09-09 15:00:00+00:00,662.8688679629711
2024-09-09 17:00:00+00:00,662.8688679629711
2024-09-09 18:00:00+00:00,662.8688679629711
2024-09-09 19:00:00+00:00,662.8688679629711
2024-09-10 13:00:00+00:00,662.8688679629711
2024-09-10 14:00:00+00:00,662.8688679629711
2024-09-10 15:00:00+00:00,662.8688679629711
2024-09-10 17:00:00+00:00,662.8688679629711
2024-09-10 18:00:00+00:00,662.8688679629711
2024-09-10 19:00:00+00:00,662.8688679629711
2024-09-11 13:00:00+00:00,662.8688679629711
2024-09-11 14:00:00+00:00,662.8688679629711
2024-09-11 15:00:00+00:00,662.8688679629711
2024-09-11 16:00:00+00:00,662.8688679629711
2024-09-11 19:00:00+00:00,662.8688679629711
2024-09-12 13:00:00+00:00,662.8688679629711
2024-09-12 14:00:00+00:00,662.8688679629711
2024-09-12 15:00:00+00:00,662.8688679629711
2024-09-12 16:00:00+00:00,662.8688679629711
2024-09-12 17:00:00+00:00,662.8688679629711
2024-09-12 18:00:00+00:00,662.8688679629711
2024-09-12 19:00:00+00:00,662.8688679629711
2024-09-13 13:00:00+00:00,662.8688679629711
2024-09-13 14:00:00+00:00,662.8688679629711
2024-09-13 15:00:00+00:00,662.8688679629711
2024-09-16 13:00:00+00:00,662.8688679629711
2024-09-16 14:00:00+00:00,662.8688679629711
2024-09-16 15:00:00+00:00,662.8688679629711
2024-09-16 16:00:00+00:00,662.8688679629711
2024-09-16 17:00:00+00:00,662.8688679629711
2024-09-16 18:00:00+00:00,662.8688679629711
2024-09-16 19:00:00+00:00,662.8688679629711
2024-09-17 13:00:00+00:00,662.8688679629711
2024-09-17 14:00:00+00:00,662.8688679629711
2024-09-17 16:00:00+00:00,662.8688679629711
2024-09-17 18:00:00+00:00,662.8688679629711
2024-09-17 19:00:00+00:00,662.8688679629711
2024-09-18 13:00:00+00:00,662.8688679629711
2024-09-18 14:00:00+00:00,662.8688679629711
2024-09-18 15:00:00+00:00,662.8688679629711
2024-09-18 17:00:00+00:00,662.8688679629711
2024-09-18 18:00:00+00:00,662.8688679629711
2024-09-18 19:00:00+00:00,662.8688679629711
2024-09-19 13:00:00+00:00,662.8688679629711
2024-09-19 14:00:00+00:00,662.8688679629711
2024-09-19 15:00:00+00:00,662.8688679629711
2024-09-19 17:00:00+00:00,662.8688679629711
2024-09-19 18:00:00+00:00,662.8688679629711
2024-09-20 13:00:00+00:00,662.8688679629711
2024-09-20 18:00:00+00:00,662.8688679629711
2024-09-20 19:00:00+00:00,662.8688679629711
2024-09-23 13:00:00+00:00,662.8688679629711
2024-09-23 14:00:00+00:00,662.8688679629711
2024-09-23 15:00:00+00:00,662.8688679629711
2024-09-23 16:00:00+00:00,662.8688679629711
2024-09-23 18:00:00+00:00,662.8688679629711
2024-09-23 19:00:00+00:00,662.8688679629711
2024-09-24 13:00:00+00:00,662.8688679629711
2024-09-24 14:00:00+00:00,662.8688679629711
2024-09-24 15:00:00+00:00,662.8688679629711
2024-09-24 18:00:00+00:00,662.8688679629711
2024-09-24 19:00:00+00:00,662.8688679629711
2024-09-25 13:00:00+00:00,662.8688679629711
2024-09-25 14:00:00+00:00,662.8688679629711
2024-09-25 16:00:00+00:00,662.8688679629711
2024-09-25 18:00:00+00:00,662.8688679629711
2024-09-26 13:00:00+00:00,662.8688679629711
2024-09-26 14:00:00+00:00,662.8688679629711
2024-09-26 15:00:00+00:00,662.8688679629711
2024-09-26 16:00:00+00:00,662.8688679629711
2024-09-26 17:00:00+00:00,662.8688679629711
2024-09-26 18:00:00+00:00,662.8688679629711
2024-09-26 19:00:00+00:00,662.8688679629711
2024-09-27 13:00:00+00:00,662.8688679629711
2024-09-27 14:00:00+00:00,662.8688679629711
2024-09-27 16:00:00+00:00,662.8688679629711
2024-09-27 17:00:00+00:00,662.8688679629711
2024-09-27 18:00:00+00:00,662.8688679629711
2024-09-27 19:00:00+00:00,662.8688679629711
2024-09-30 13:00:00+00:00,662.8688679629711
2024-09-30 14:00:00+00:00,662.8688679629711
2024-09-30 15:00:00+00:00,662.8688679629711
2024-09-30 16:00:00+00:00,662.8688679629711
2024-09-30 17:00:00+00:00,662.8688679629711
2024-09-30 19:00:00+00:00,662.8688679629711
2024-10-01 13:00:00+00:00,662.8688679629711
2024-10-01 14:00:00+00:00,662.8688679629711
2024-10-01 15:00:00+00:00,662.8688679629711
2024-10-01 16:00:00+00:00,662.8688679629711
2024-10-01 17:00:00+00:00,662.8688679629711
2024-10-01 19:00:00+00:00,662.8688679629711
2024-10-02 13:00:00+00:00,662.8688679629711
2024-10-02 14:00:00+00:00,662.8688679629711
2024-10-02 15:00:00+00:00,662.8688679629711
2024-10-02 16:00:00+00:00,662.8688679629711
2024-10-02 18:00:00+00:00,662.8688679629711
2024-10-02 19:00:00+00:00,662.8688679629711
2024-10-03 13:00:00+00:00,662.8688679629711
2024-10-03 19:00:00+00:00,662.8688679629711
2024-10-04 13:00:00+00:00,662.8688679629711
2024-10-04 15:00:00+00:00,662.8688679629711
2024-10-04 16:00:00+00:00,662.8688679629711
2024-10-04 17:00:00+00:00,662.8688679629711
2024-10-04 18:00:00+00:00,662.8688679629711
2024-10-04 19:00:00+00:00,662.8688679629711
2024-10-07 13:00:00+00:00,662.8688679629711
2024-10-07 14:00:00+00:00,662.8688679629711
2024-10-07 16:00:00+00:00,662.8688679629711
2024-10-07 18:00:00+00:00,662.8688679629711
2024-10-08 13:00:00+00:00,662.8688679629711
2024-10-08 14:00:00+00:00,662.8688679629711
2024-10-08 15:00:00+00:00,662.8688679629711
2024-10-08 16:00:00+00:00,662.8688679629711
2024-10-08 17:00:00+00:00,662.8688679629711
2024-10-09 13:00:00+00:00,662.8688679629711
2024-10-09 14:00:00+00:00,662.8688679629711
2024-10-09 16:00:00+00:00,662.8688679629711
2024-10-10 13:00:00+00:00,662.8688679629711
2024-10-10 14:00:00+00:00,662.8688679629711
2024-10-10 15:00:00+00:00,662.8688679629711
2024-10-10 16:00:00+00:00,662.8688679629711
2024-10-11 13:00:00+00:00,662.8688679629711
2024-10-11 17:00:00+00:00,662.8688679629711
2024-10-14 13:00:00+00:00,662.8688679629711
2024-10-14 14:00:00+00:00,662.8688679629711
2024-10-14 15:00:00+00:00,662.8688679629711
2024-10-14 18:00:00+00:00,662.8688679629711
2024-10-14 19:00:00+00:00,662.8688679629711
2024-10-15 13:00:00+00:00,662.8688679629711
2024-10-15 14:00:00+00:00,662.8688679629711
2024-10-15 16:00:00+00:00,662.8688679629711
2024-10-15 17:00:00+00:00,662.8688679629711
2024-10-15 18:00:00+00:00,662.8688679629711
2024-10-16 13:00:00+00:00,662.8688679629711
2024-10-16 14:00:00+00:00,662.8688679629711
2024-10-16 15:00:00+00:00,662.8688679629711
2024-10-16 17:00:00+00:00,662.8688679629711
2024-10-16 19:00:00+00:00,662.8688679629711
2024-10-17 14:00:00+00:00,662.8688679629711
2024-10-17 17:00:00+00:00,662.8688679629711
2024-10-17 19:00:00+00:00,662.8688679629711
2024-10-18 13:00:00+00:00,662.8688679629711
2024-10-18 14:00:00+00:00,662.8688679629711
2024-10-18 15:00:00+00:00,662.8688679629711
2024-10-18 16:00:00+00:00,662.8688679629711
2024-10-18 18:00:00+00:00,662.8688679629711
2024-10-18 19:00:00+00:00,662.8688679629711
2024-10-21 14:00:00+00:00,662.8688679629711
2024-10-21 15:00:00+00:00,662.8688679629711
2024-10-21 16:00:00+00:00,662.8688679629711
2024-10-21 17:00:00+00:00,662.8688679629711
2024-10-21 18:00:00+00:00,662.8688679629711
2024-10-21 19:00:00+00:00,662.8688679629711
2024-10-22 13:00:00+00:00,662.8688679629711
2024-10-22 14:00:00+00:00,662.8688679629711
2024-10-22 16:00:00+00:00,662.8688679629711
2024-10-22 17:00:00+00:00,662.8688679629711
2024-10-22 18:00:00+00:00,662.8688679629711
2024-10-22 19:00:00+00:00,662.8688679629711
2024-10-23 13:00:00+00:00,662.8688679629711
2024-10-23 14:00:00+00:00,662.8688679629711
2024-10-23 15:00:00+00:00,662.8688679629711
2024-10-23 16:00:00+00:00,662.8688679629711
2024-10-23 17:00:00+00:00,662.8688679629711
2024-10-23 18:00:00+00:00,662.8688679629711
2024-10-23 19:00:00+00:00,662.8688679629711
2024-10-24 13:00:00+00:00,662.8688679629711
2024-10-24 14:00:00+00:00,662.8688679629711
2024-10-24 15:00:00+00:00,662.8688679629711
2024-10-24 16:00:00+00:00,662.8688679629711
2024-10-24 17:00:00+00:00,662.8688679629711
2024-10-24 18:00:00+00:00,662.8688679629711
2024-10-25 13:00:00+00:00,662.8688679629711
2024-10-25 15:00:00+00:00,662.8688679629711
2024-10-25 16:00:00+00:00,662.8688679629711
2024-10-25 19:00:00+00:00,662.8688679629711
2024-10-28 13:00:00+00:00,662.8688679629711
2024-10-28 14:00:00+00:00,662.8688679629711
2024-10-28 15:00:00+00:00,662.8688679629711
2024-10-28 16:00:00+00:00,662.8688679629711
2024-10-28 17:00:00+00:00,662.8688679629711
2024-10-28 18:00:00+00:00,662.8688679629711
2024-10-28 19:00:00+00:00,662.8688679629711
2024-10-29 13:00:00+00:00,662.8688679629711
2024-10-29 14:00:00+00:00,662.8688679629711
2024-10-29 15:00:00+00:00,662.8688679629711
2024-10-29 16:00:00+00:00,662.8688679629711
2024-10-29 17:00:00+00:00,662.8688679629711
2024-10-29 18:00:00+00:00,662.8688679629711
2024-10-29 19:00:00+00:00,662.8688679629711
2024-10-30 13:00:00+00:00,662.8688679629711
2024-10-30 14:00:00+00:00,662.8688679629711
2024-10-30 15:00:00+00:00,662.8688679629711
2024-10-30 16:00:00+00:00,662.8688679629711
2024-10-30 17:00:00+00:00,662.8688679629711
2024-10-30 18:00:00+00:00,662.8688679629711
2024-10-30 19:00:00+00:00,662.8688679629711
2024-10-31 13:00:00+00:00,662.8688679629711
2024-10-31 15:00:00+00:00,662.8688679629711
2024-10-31 18:00:00+00:00,662.8688679629711
2024-10-31 19:00:00+00:00,662.8688679629711
2024-11-01 13:00:00+00:00,662.8688679629711
2024-11-01 15:00:00+00:00,662.8688679629711
2024-11-01 17:00:00+00:00,662.8688679629711
2024-11-01 18:00:00+00:00,662.8688679629711
2024-11-01 19:00:00+00:00,662.8688679629711
2024-11-04 14:00:00+00:00,662.8688679629711
2024-11-04 16:00:00+00:00,662.8688679629711
2024-11-04 18:00:00+00:00,662.8688679629711
2024-11-04 19:00:00+00:00,662.8688679629711
2024-11-04 20:00:00+00:00,662.8688679629711
2024-11-05 14:00:00+00:00,662.8688679629711
2024-11-05 15:00:00+00:00,662.8688679629711
2024-11-05 16:00:00+00:00,662.8688679629711
2024-11-05 18:00:00+00:00,662.8688679629711
2024-11-05 19:00:00+00:00,662.8688679629711
2024-11-05 20:00:00+00:00,662.8688679629711
2024-11-06 14:00:00+00:00,662.8688679629711
2024-11-06 15:00:00+00:00,662.8688679629711
2024-11-06 16:00:00+00:00,662.8688679629711
2024-11-06 17:00:00+00:00,662.8688679629711
2024-11-06 19:00:00+00:00,662.8688679629711
2024-11-06 20:00:00+00:00,662.8688679629711
2024-11-07 14:00:00+00:00,662.8688679629711
2024-11-07 15:00:00+00:00,662.8688679629711
2024-11-07 17:00:00+00:00,662.8688679629711
2024-11-07 18:00:00+00:00,662.8688679629711
2024-11-07 19:00:00+00:00,662.8688679629711
2024-11-08 14:00:00+00:00,662.8688679629711
2024-11-08 15:00:00+00:00,662.8688679629711
2024-11-08 16:00:00+00:00,662.8688679629711
2024-11-08 17:00:00+00:00,662.8688679629711
2024-11-08 18:00:00+00:00,662.8688679629711
2024-11-08 19:00:00+00:00,662.8688679629711
2024-11-08 20:00:00+00:00,662.8688679629711
2024-11-11 14:00:00+00:00,662.8688679629711
2024-11-11 15:00:00+00:00,662.8688679629711
2024-11-11 18:00:00+00:00,662.8688679629711
2024-11-11 19:00:00+00:00,662.8688679629711
2024-11-11 20:00:00+00:00,662.8688679629711
2024-11-12 14:00:00+00:00,662.8688679629711
2024-11-12 15:00:00+00:00,641.8068625605378
2024-11-12 16:00:00+00:00,608.1388486374874
2024-11-12 17:00:00+00:00,633.01714428862
2024-11-12 18:00:00+00:00,656.353513560486
2024-11-12 19:00:00+00:00,666.4206851672702
2024-11-12 20:00:00+00:00,661.9768738707472
2024-11-13 14:00:00+00:00,519.2899817668871
2024-11-13 15:00:00+00:00,570.6546963335217
2024-11-13 17:00:00+00:00,580.2746804828427
2024-11-13 18:00:00+00:00,589.3971457713984
2024-11-13 19:00:00+00:00,578.0851267053449
2024-11-13 20:00:00+00:00,567.0716797028638
2024-11-14 15:00:00+00:00,619.615791415451
2024-11-14 16:00:00+00:00,598.0619702596507
2024-11-14 17:00:00+00:00,600.8733419775755
2024-11-14 18:00:00+00:00,590.9546338968963
2024-11-14 19:00:00+00:00,558.3473358103693
2024-11-14 20:00:00+00:00,558.5464344753458
2024-11-15 14:00:00+00:00,773.2967707431732
2024-11-15 15:00:00+00:00,744.471512018387
2024-11-15 16:00:00+00:00,761.5212559016353
2024-11-15 17:00:00+00:00,754.0507956015662
2024-11-15 18:00:00+00:00,748.7512221086786
2024-11-15 19:00:00+00:00,742.7141786561247
2024-11-15 20:00:00+00:00,764.1090070090863
2024-11-18 14:00:00+00:00,775.2680179448573
2024-11-18 15:00:00+00:00,784.8725162818373
2024-11-18 17:00:00+00:00,758.8994057750112
2024-11-18 18:00:00+00:00,763.0297538996246
2024-11-18 19:00:00+00:00,775.3371144227767
2024-11-18 20:00:00+00:00,755.3504881635265
2024-11-19 14:00:00+00:00,624.2282485223803
2024-11-19 15:00:00+00:00,656.2384024817645
2024-11-19 16:00:00+00:00,736.0153632687867
2024-11-19 17:00:00+00:00,730.4759146108889
2024-11-19 18:00:00+00:00,751.771193631365
2024-11-19 19:00:00+00:00,754.358944738816
2024-11-19 20:00:00+00:00,739.697853298041
2024-11-20 14:00:00+00:00,624.4614462065315
2024-11-20 15:00:00+00:00,590.1963640902275
2024-11-20 16:00:00+00:00,617.9765446586155
2024-11-20 17:00:00+00:00,625.6558103947146
2024-11-20 18:00:00+00:00,616.284585675775
2024-11-20 19:00:00+00:00,638.9242614880071
2024-11-20 20:00:00+00:00,666.8537280881844
2024-11-21 14:00:00+00:00,520.303860496926
2024-11-21 15:00:00+00:00,488.6576529805391
2024-11-21 16:00:00+00:00,487.97090686076484
2024-11-21 17:00:00+00:00,505.8723205756989
2024-11-21 18:00:00+00:00,499.63692502995485
2024-11-21 19:00:00+00:00,514.9947099303625
2024-11-21 20:00:00+00:00,488.52392869498584
2024-11-22 14:00:00+00:00,520.0364878597111
2024-11-22 15:00:00+00:00,507.3651808935627
2024-11-22 16:00:00+00:00,536.6881103468997
2024-11-22 18:00:00+00:00,553.6390514694464
2024-11-22 19:00:00+00:00,546.3579071294107
2024-11-25 14:00:00+00:00,688.2262970697124
2024-11-25 15:00:00+00:00,677.1630374340414
2024-11-25 16:00:00+00:00,651.7217726088284
2024-11-25 17:00:00+00:00,658.4555095210177
2024-11-25 18:00:00+00:00,676.600068259961
2024-11-25 19:00:00+00:00,679.7507885414925
2024-11-25 20:00:00+00:00,669.0359136025845
2024-11-26 14:00:00+00:00,512.6683945116289
2024-11-26 15:00:00+00:00,496.0189868744439
2024-11-26 16:00:00+00:00,517.4683229947722
2024-11-26 17:00:00+00:00,509.0386026034633
2024-11-26 18:00:00+00:00,507.49592965240913
2024-11-26 19:00:00+00:00,499.1541454097425
2024-11-26 20:00:00+00:00,529.0244822909269
2024-11-27 14:00:00+00:00,488.0069741217084
2024-11-27 15:00:00+00:00,521.8584490296114
2024-11-27 16:00:00+00:00,546.6379419200437
2024-11-27 17:00:00+00:00,549.8228371546403
2024-11-27 18:00:00+00:00,568.1664945585587
2024-11-27 19:00:00+00:00,497.0640650308409
2024-11-27 20:00:00+00:00,488.8878751379817
2024-11-29 14:00:00+00:00,532.4379338389798
2024-11-29 15:00:00+00:00,585.679658283398
2024-11-29 16:00:00+00:00,557.3178953340973
2024-12-02 14:00:00+00:00,638.4882430403875
2024-12-02 15:00:00+00:00,714.5818912924774
2024-12-02 17:00:00+00:00,662.5361209463326
2024-12-02 18:00:00+00:00,691.7595010671802
2024-12-02 19:00:00+00:00,733.1557708538385
2024-12-02 20:00:00+00:00,706.4859668873785
2024-12-03 14:00:00+00:00,832.3213912672855
2024-12-03 15:00:00+00:00,845.7888650916639
2024-12-03 16:00:00+00:00,838.7721178621349
2024-12-03 17:00:00+00:00,861.4110471025793
2024-12-03 18:00:00+00:00,838.8716671946232
2024-12-03 19:00:00+00:00,821.423055343526
2024-12-03 20:00:00+00:00,813.5952501474297
2024-12-04 14:00:00+00:00,724.6312721981097
2024-12-04 15:00:00+00:00,772.0645854373206
2024-12-04 16:00:00+00:00,779.0968944130827
2024-12-04 17:00:00+00:00,765.7288939873021
2024-12-04 18:00:00+00:00,756.8055273637214
2024-12-04 19:00:00+00:00,770.372550520588
2024-12-05 14:00:00+00:00,836.2527166608141
2024-12-05 15:00:00+00:00,858.344985045199
2024-12-05 16:00:00+00:00,860.3355160916124
2024-12-05 17:00:00+00:00,810.8953493830477
2024-12-05 18:00:00+00:00,809.8971224380506
2024-12-05 19:00:00+00:00,831.4754117758652
2024-12-05 20:00:00+00:00,804.8056078094039
2024-12-06 14:00:00+00:00,905.8778476169024
2024-12-06 15:00:00+00:00,930.2933940643385
2024-12-06 16:00:00+00:00,919.6780684579174
2024-12-06 17:00:00+00:00,878.4459758113824
2024-12-06 18:00:00+00:00,887.4688158335581
2024-12-06 20:00:00+00:00,906.4251791108578
2024-12-09 14:00:00+00:00,1182.2219423094598
2024-12-09 15:00:00+00:00,1192.3388506155422
2024-12-09 16:00:00+00:00,1156.5466572944172
2024-12-09 17:00:00+00:00,1118.1021609920979
2024-12-09 19:00:00+00:00,1105.265930314038
2024-12-09 20:00:00+00:00,1104.2060369831972
2024-12-10 14:00:00+00:00,1061.5189051364648
2024-12-10 15:00:00+00:00,1081.7847436806678
2024-12-10 16:00:00+00:00,1048.4309395013156
2024-12-10 18:00:00+00:00,1091.170859507945
2024-12-10 19:00:00+00:00,1083.8406491065045
2024-12-11 14:00:00+00:00,1043.0750277621607
2024-12-11 15:00:00+00:00,1038.5806572606596
2024-12-11 16:00:00+00:00,1070.840393156105
2024-12-11 17:00:00+00:00,1048.9471475028047
2024-12-11 18:00:00+00:00,1049.3794438519308
2024-12-11 19:00:00+00:00,1057.5961696760164
2024-12-11 20:00:00+00:00,1053.161559147565
2024-12-12 14:00:00+00:00,1126.817488895778
2024-12-12 15:00:00+00:00,1114.3609182747314
2024-12-12 16:00:00+00:00,1098.4557259464746
2024-12-12 18:00:00+00:00,1082.052116317882
2024-12-12 19:00:00+00:00,1055.5315983832074
2024-12-12 20:00:00+00:00,1038.6303939599577
2024-12-13 16:00:00+00:00,983.5178909185365
2024-12-13 17:00:00+00:00,985.1601132020793
2024-12-13 19:00:00+00:00,993.0042267161964
2024-12-13 20:00:00+00:00,982.2396150779916
2024-12-16 14:00:00+00:00,821.4921518214438
2024-12-16 15:00:00+00:00,861.4645059003718
2024-12-16 16:00:00+00:00,836.9345949460026
2024-12-16 17:00:00+00:00,855.2781764160302
2024-12-16 18:00:00+00:00,850.1866617873834
2024-12-16 19:00:00+00:00,834.4307554909147
2024-12-16 20:00:00+00:00,849.1267684565414
2024-12-17 14:00:00+00:00,861.7318785375866
2024-12-17 15:00:00+00:00,785.7377796179865
2024-12-17 16:00:00+00:00,798.8063854745147
2024-12-17 17:00:00+00:00,827.1091430880498
2024-12-17 20:00:00+00:00,792.4715165301757
2024-12-18 14:00:00+00:00,741.684738179851
2024-12-18 15:00:00+00:00,732.3940793203877
2024-12-18 16:00:00+00:00,722.9081137889104
2024-12-18 18:00:00+00:00,668.641514305018
2024-12-18 19:00:00+00:00,528.9100418501
2024-12-18 20:00:00+00:00,572.8137972564504
2024-12-19 14:00:00+00:00,548.8654686829917
2024-12-19 15:00:00+00:00,529.9580955332036
2024-12-19 16:00:00+00:00,518.9951318018088
2024-12-19 17:00:00+00:00,505.0797998820713
2024-12-19 18:00:00+00:00,526.5094738259952
2024-12-19 19:00:00+00:00,510.2552261630812
2024-12-19 20:00:00+00:00,512.3453065419827
2024-12-20 14:00:00+00:00,512.5941419062575
2024-12-20 15:00:00+00:00,507.5338267039689
2024-12-20 16:00:00+00:00,547.7357323024454
2024-12-20 17:00:00+00:00,553.5581153437911
2024-12-20 18:00:00+00:00,568.2199533563514
2024-12-20 19:00:00+00:00,574.639480524843
2024-12-20 20:00:00+00:00,521.3837842442834
2024-12-23 14:00:00+00:00,466.27053463107575
2024-12-23 15:00:00+00:00,491.050027521508
2024-12-23 16:00:00+00:00,485.0037154324827
2024-12-23 17:00:00+00:00,476.6526625533459
2024-12-23 18:00:00+00:00,492.85642694517406
2024-12-23 19:00:00+00:00,474.46303284195596
2024-12-23 20:00:00+00:00,497.9479415738207
2024-12-24 14:00:00+00:00,497.84839224133253
2024-12-24 15:00:00+00:00,542.2570986265907
2024-12-24 16:00:00+00:00,537.4539002844499
2024-12-26 14:00:00+00:00,523.5883050640106
2024-12-26 15:00:00+00:00,588.6194402522158
2024-12-26 16:00:00+00:00,560.540687620255
2024-12-26 17:00:00+00:00,564.9852454885647
2024-12-26 18:00:00+00:00,590.4109485675446
2024-12-26 19:00:00+00:00,560.4909509209568
2024-12-26 20:00:00+00:00,550.0248354124315
2024-12-27 14:00:00+00:00,521.6972474161932
2024-12-27 15:00:00+00:00,570.9569904955887
2024-12-27 16:00:00+00:00,553.2446521718796
2024-12-27 17:00:00+00:00,553.4934875361544
2024-12-27 18:00:00+00:00,557.6885394022962
2024-12-27 19:00:00+00:00,543.2265466264976
2024-12-27 20:00:00+00:00,550.4578783333441
2024-12-30 14:00:00+00:00,474.6308561466825
2024-12-30 15:00:00+00:00,437.0471545102271
2024-12-30 16:00:00+00:00,457.0493425157101
2024-12-30 17:00:00+00:00,474.4473951618307
2024-12-30 18:00:00+00:00,474.18170247351907
2024-12-30 19:00:00+00:00,498.3802379229468
2024-12-30 20:00:00+00:00,477.1844323010682
2024-12-31 14:00:00+00:00,479.09105169511855
2024-12-31 15:00:00+00:00,434.6585020677524
2024-12-31 16:00:00+00:00,433.10093800836256
2024-12-31 17:00:00+00:00,432.29474787638077
2024-12-31 18:00:00+00:00,424.3268574165698
2024-12-31 19:00:00+00:00,445.4728504052582
2025-01-02 14:00:00+00:00,455.16126039460005
2025-01-02 15:00:00+00:00,414.9251798430626
2025-01-02 16:00:00+00:00,416.61713882590334
2025-01-02 17:00:00+00:00,416.77576942805024
2025-01-02 18:00:00+00:00,411.4602498178332
2025-01-02 19:00:00+00:00,450.8510974497396
2025-01-02 20:00:00+00:00,459.1119455667498
2025-01-03 14:00:00+00:00,290.40518178346997
2025-01-03 15:00:00+00:00,295.97872946054105
2025-01-03 16:00:00+00:00,294.8000029524843
2025-01-03 17:00:00+00:00,292.66018587428454
2025-01-03 18:00:00+00:00,300.19008964470237
2025-01-03 19:00:00+00:00,300.2896389771908
2025-01-03 20:00:00+00:00,298.2337335513556
2025-01-06 14:00:00+00:00,476.65928424465426
2025-01-06 15:00:00+00:00,497.25869231117514
2025-01-06 18:00:00+00:00,489.33059121080265
2025-01-06 19:00:00+00:00,469.62772184068155
2025-01-06 20:00:00+00:00,462.2968408013467
2025-01-07 14:00:00+00:00,509.7264319420655
2025-01-07 15:00:00+00:00,499.6933593544542
2025-01-07 16:00:00+00:00,498.8815548160991
2025-01-07 17:00:00+00:00,515.2353518115013
2025-01-07 18:00:00+00:00,509.99455115106815
2025-01-07 19:00:00+00:00,472.23028812257644
2025-01-07 20:00:00+00:00,486.24524530869434
2025-01-08 14:00:00+00:00,387.44654686495187
2025-01-08 15:00:00+00:00,350.5594627542398
2025-01-08 16:00:00+00:00,360.08004943885646
2025-01-08 17:00:00+00:00,364.17629854429657
2025-01-08 18:00:00+00:00,394.0962961908857
2025-01-08 19:00:00+00:00,370.611387459021
2025-01-08 20:00:00+00:00,394.39494418835073
2025-01-10 14:00:00+00:00,297.88534885459285
2025-01-10 15:00:00+00:00,237.69689293076084
2025-01-10 16:00:00+00:00,241.92686632175432
2025-01-10 17:00:00+00:00,262.57518858189195
2025-01-10 19:00:00+00:00,273.58863558437275
2025-01-10 20:00:00+00:00,262.11243937819705
2025-01-13 14:00:00+00:00,290.1066097198971
2025-01-13 15:00:00+00:00,292.0132291139488
2025-01-13 16:00:00+00:00,271.6634789173826
2025-01-13 17:00:00+00:00,301.83231192824513
2025-01-13 18:00:00+00:00,295.1483876492473
2025-01-13 19:00:00+00:00,322.4153357428542
2025-01-13 20:00:00+00:00,324.3716918362027
2025-01-14 14:00:00+00:00,450.25395332259393
2025-01-14 15:00:00+00:00,484.7523090569384
2025-01-14 16:00:00+00:00,455.13080754003124
2025-01-14 17:00:00+00:00,466.8060264772916
2025-01-14 18:00:00+00:00,481.81617325272424
2025-01-14 19:00:00+00:00,456.09189811017274
2025-01-14 20:00:00+00:00,463.7206805751833
2025-01-15 14:00:00+00:00,806.940953502964
2025-01-15 15:00:00+00:00,802.5959449671398
2025-01-15 16:00:00+00:00,818.4513246622048
2025-01-15 18:00:00+00:00,807.4963339894776
2025-01-15 19:00:00+00:00,805.2489945201233
2025-01-15 20:00:00+00:00,829.3310473791324
2025-01-16 14:00:00+00:00,747.1654341496356
2025-01-16 15:00:00+00:00,767.4661942186914
2025-01-16 16:00:00+00:00,826.908219983593
2025-01-16 17:00:00+00:00,787.7662077159598
2025-01-16 19:00:00+00:00,776.6532113809919
2025-01-16 20:00:00+00:00,769.9848488482261
2025-01-17 14:00:00+00:00,884.2906182241627
2025-01-17 15:00:00+00:00,840.8042680586015
2025-01-17 16:00:00+00:00,810.7497995546711
2025-01-17 18:00:00+00:00,783.666236512025
2025-01-17 19:00:00+00:00,784.6117653359333
2025-01-17 20:00:00+00:00,802.7570706466645
2025-01-21 14:00:00+00:00,1107.1644321588442
2025-01-21 15:00:00+00:00,1107.1644321588442
2025-01-21 16:00:00+00:00,1107.1644321588442
2025-01-21 17:00:00+00:00,1107.1644321588442
2025-01-21 19:00:00+00:00,1107.1644321588442
2025-01-21 20:00:00+00:00,1107.1644321588442
2025-01-22 14:00:00+00:00,1107.1644321588442
2025-01-22 16:00:00+00:00,1107.1644321588442
2025-01-22 17:00:00+00:00,1107.1644321588442
2025-01-22 19:00:00+00:00,1107.1644321588442
2025-01-22 20:00:00+00:00,1107.1644321588442
2025-01-23 14:00:00+00:00,1107.1644321588442
2025-01-23 15:00:00+00:00,1107.1644321588442
2025-01-23 16:00:00+00:00,1107.1644321588442
2025-01-23 17:00:00+00:00,1107.1644321588442
2025-01-23 18:00:00+00:00,1107.1644321588442
2025-01-23 19:00:00+00:00,1107.1644321588442
2025-01-23 20:00:00+00:00,1107.1644321588442
2025-01-24 14:00:00+00:00,1107.1644321588442
2025-01-24 15:00:00+00:00,1107.1644321588442
2025-01-24 16:00:00+00:00,1107.1644321588442
2025-01-24 17:00:00+00:00,1107.1644321588442
2025-01-24 18:00:00+00:00,1107.1644321588442
2025-01-24 19:00:00+00:00,1107.1644321588442
2025-01-24 20:00:00+00:00,1107.1644321588442
2025-01-27 14:00:00+00:00,1107.1644321588442
2025-01-27 15:00:00+00:00,1107.1644321588442
2025-01-27 16:00:00+00:00,1107.1644321588442
2025-01-27 17:00:00+00:00,1107.1644321588442
2025-01-27 18:00:00+00:00,1107.1644321588442
2025-01-27 19:00:00+00:00,1107.1644321588442
2025-01-27 20:00:00+00:00,1107.1644321588442
2025-01-28 14:00:00+00:00,1107.1644321588442
2025-01-28 15:00:00+00:00,1107.1644321588442
2025-01-28 16:00:00+00:00,1107.1644321588442
2025-01-28 17:00:00+00:00,1107.1644321588442
2025-01-28 18:00:00+00:00,1107.1644321588442
2025-01-28 19:00:00+00:00,1107.1644321588442
2025-01-29 14:00:00+00:00,1107.1644321588442
2025-01-29 15:00:00+00:00,1107.1644321588442
2025-01-29 16:00:00+00:00,1107.1644321588442
2025-01-29 17:00:00+00:00,1107.1644321588442
2025-01-29 18:00:00+00:00,1107.1644321588442
2025-01-29 19:00:00+00:00,1107.1644321588442
2025-01-29 20:00:00+00:00,1107.1644321588442
2025-01-30 14:00:00+00:00,1107.1644321588442
2025-01-30 15:00:00+00:00,1107.1644321588442
2025-01-30 16:00:00+00:00,1107.1644321588442
2025-01-30 18:00:00+00:00,1107.1644321588442
2025-01-30 19:00:00+00:00,1107.1644321588442
2025-01-30 20:00:00+00:00,1107.1644321588442
2025-01-31 14:00:00+00:00,1107.1644321588442
2025-01-31 15:00:00+00:00,1107.1644321588442
2025-01-31 16:00:00+00:00,1107.1644321588442
2025-01-31 17:00:00+00:00,1107.1644321588442
2025-01-31 18:00:00+00:00,1107.1644321588442
2025-01-31 19:00:00+00:00,1107.1644321588442
2025-01-31 20:00:00+00:00,1107.1644321588442
2025-02-03 14:00:00+00:00,1107.1644321588442
2025-02-03 15:00:00+00:00,1107.1644321588442
2025-02-03 16:00:00+00:00,1107.1644321588442
2025-02-03 17:00:00+00:00,1107.1644321588442
2025-02-03 18:00:00+00:00,1107.1644321588442
2025-02-03 19:00:00+00:00,1107.1644321588442
2025-02-03 20:00:00+00:00,1107.1644321588442
2025-02-04 16:00:00+00:00,1107.1644321588442
2025-02-04 18:00:00+00:00,1107.1644321588442
2025-02-04 20:00:00+00:00,1107.1644321588442
2025-02-05 14:00:00+00:00,1107.1644321588442
2025-02-05 15:00:00+00:00,1107.1644321588442
2025-02-05 16:00:00+00:00,1107.1644321588442
2025-02-05 17:00:00+00:00,1107.1644321588442
2025-02-05 19:00:00+00:00,1107.1644321588442
2025-02-05 20:00:00+00:00,1107.1644321588442
2025-02-06 14:00:00+00:00,1107.1644321588442
2025-02-06 15:00:00+00:00,1107.1644321588442
2025-02-06 17:00:00+00:00,1107.1644321588442
2025-02-06 18:00:00+00:00,1107.1644321588442
2025-02-06 19:00:00+00:00,1107.1644321588442
2025-02-06 20:00:00+00:00,1107.1644321588442
2025-02-07 14:00:00+00:00,1107.1644321588442
2025-02-07 15:00:00+00:00,1107.1644321588442
2025-02-07 16:00:00+00:00,1107.1644321588442
2025-02-07 17:00:00+00:00,1107.1644321588442
2025-02-07 19:00:00+00:00,1107.1644321588442
2025-02-07 20:00:00+00:00,1107.1644321588442
2025-02-10 14:00:00+00:00,1107.1644321588442
2025-02-10 15:00:00+00:00,1107.1644321588442
2025-02-10 19:00:00+00:00,1107.1644321588442
2025-02-10 20:00:00+00:00,1107.1644321588442
2025-02-11 14:00:00+00:00,1107.1644321588442
2025-02-11 16:00:00+00:00,1107.1644321588442
2025-02-11 17:00:00+00:00,1107.1644321588442
2025-02-11 19:00:00+00:00,1107.1644321588442
2025-02-11 20:00:00+00:00,1107.1644321588442
2025-02-12 14:00:00+00:00,1107.1644321588442
2025-02-12 15:00:00+00:00,1107.1644321588442
2025-02-12 16:00:00+00:00,1107.1644321588442
2025-02-12 17:00:00+00:00,1107.1644321588442
2025-02-12 18:00:00+00:00,1107.1644321588442
2025-02-12 19:00:00+00:00,1107.1644321588442
2025-02-12 20:00:00+00:00,1107.1644321588442
2025-02-13 14:00:00+00:00,1107.1644321588442
2025-02-13 15:00:00+00:00,1049.3481427910158
2025-02-13 16:00:00+00:00,1076.7859620801562
2025-02-13 17:00:00+00:00,1078.9282779164737
2025-02-13 18:00:00+00:00,1102.015299815919
2025-02-13 19:00:00+00:00,1104.2099197643593
2025-02-13 20:00:00+00:00,1097.0890860626648
2025-02-14 14:00:00+00:00,953.914079813623
2025-02-14 15:00:00+00:00,1024.7174640824674
2025-02-14 16:00:00+00:00,1032.5437654427933
2025-02-14 17:00:00+00:00,1026.4940497933173
2025-02-14 18:00:00+00:00,1026.1805440480944
2025-02-14 19:00:00+00:00,1039.3250210750803
2025-02-14 20:00:00+00:00,1035.7195455412573
2025-02-18 14:00:00+00:00,1194.0616960495845
2025-02-18 15:00:00+00:00,1184.7846051747586
2025-02-18 16:00:00+00:00,1164.6244521918038
2025-02-18 17:00:00+00:00,1189.7108986598907
2025-02-18 18:00:00+00:00,1182.7990422110522
2025-02-18 19:00:00+00:00,1157.5558428703525
2025-02-18 20:00:00+00:00,1183.4638669553278
2025-02-19 14:00:00+00:00,1562.3876292890966
2025-02-19 15:00:00+00:00,1586.4435208874422
2025-02-19 16:00:00+00:00,1569.2761633424002
2025-02-19 17:00:00+00:00,1591.16075738784
2025-02-19 18:00:00+00:00,1597.7446172331613
2025-02-19 19:00:00+00:00,1592.609346495173
2025-02-19 20:00:00+00:00,1566.6869112837826
2025-02-20 14:00:00+00:00,1507.787683202211
2025-02-20 15:00:00+00:00,1540.7643963405137
2025-02-20 16:00:00+00:00,1551.960964193866
2025-02-20 17:00:00+00:00,1561.9035090663253
2025-02-20 18:00:00+00:00,1550.065438864233
2025-02-20 19:00:00+00:00,1541.8472553223792
2025-02-21 14:00:00+00:00,1456.4369433142783
2025-02-21 15:00:00+00:00,1449.6296153578069
2025-02-21 16:00:00+00:00,1416.1387910686394
2025-02-21 17:00:00+00:00,1439.9249497229132
2025-02-21 18:00:00+00:00,1437.2361195077472
2025-02-21 19:00:00+00:00,1425.3985988271324
2025-02-21 20:00:00+00:00,1420.4723850738787
2025-02-24 14:00:00+00:00,1368.9409406644427
2025-02-24 15:00:00+00:00,1332.1875879932882
2025-02-24 16:00:00+00:00,1347.1746569844283
2025-02-24 17:00:00+00:00,1333.1665953826007
2025-02-24 18:00:00+00:00,1345.1890940207222
2025-02-24 19:00:00+00:00,1355.5474202946364
2025-02-24 20:00:00+00:00,1367.9241676677584
2025-02-25 14:00:00+00:00,1376.3513284624682
2025-02-25 15:00:00+00:00,1374.1945217678567
2025-02-25 16:00:00+00:00,1362.5660580719775
2025-02-25 17:00:00+00:00,1357.2217303492553
2025-02-25 18:00:00+00:00,1298.7406162371517
2025-02-25 19:00:00+00:00,1312.967952246003
2025-02-25 20:00:00+00:00,1323.6035945940898
2025-02-26 14:00:00+00:00,1250.5388751382657
2025-02-26 15:00:00+00:00,1229.8416685670582
2025-02-26 16:00:00+00:00,1207.6436485082736
2025-02-26 17:00:00+00:00,1267.2503851918896
2025-02-26 18:00:00+00:00,1279.8055842503798
2025-02-26 19:00:00+00:00,1293.1068141499773
2025-02-26 20:00:00+00:00,1291.3824528193713
2025-02-27 14:00:00+00:00,1470.6307871517613
2025-02-27 15:00:00+00:00,1448.903025710811
2025-02-27 16:00:00+00:00,1445.7312915945909
2025-02-27 17:00:00+00:00,1475.3562156920723
2025-02-27 18:00:00+00:00,1444.304728829196
2025-02-27 19:00:00+00:00,1514.8613225913564
2025-02-27 20:00:00+00:00,1475.167319130654
2025-02-28 14:00:00+00:00,1371.6196808356542
2025-02-28 15:00:00+00:00,1343.5169570703604
2025-02-28 16:00:00+00:00,1357.3407496999152
2025-02-28 17:00:00+00:00,1428.9045759362848
2025-02-28 18:00:00+00:00,1453.3639311820473
2025-02-28 19:00:00+00:00,1457.1784637006049
2025-02-28 20:00:00+00:00,1430.24863655125
2025-03-03 14:00:00+00:00,1116.3425741304795
2025-03-03 15:00:00+00:00,1151.2430853297656
2025-03-03 16:00:00+00:00,1153.6467622629402
2025-03-03 17:00:00+00:00,1150.302568094096
2025-03-03 18:00:00+00:00,1187.0780744855235
2025-03-03 19:00:00+00:00,1217.7239449402693
2025-03-03 20:00:00+00:00,1210.5508071264524
2025-03-04 14:00:00+00:00,1432.7544569798115
2025-03-04 15:00:00+00:00,1379.7294546837172
2025-03-04 16:00:00+00:00,1333.1614080280065
2025-03-04 17:00:00+00:00,1278.59919546307
2025-03-04 18:00:00+00:00,1048.0806183543446
2025-03-04 19:00:00+00:00,1074.1076617899803
2025-03-04 20:00:00+00:00,1145.2534537887584
2025-03-05 14:00:00+00:00,344.8422314600916
2025-03-05 15:00:00+00:00,249.34711256521496
2025-03-05 16:00:00+00:00,228.0607077573888
2025-03-05 17:00:00+00:00,272.23925105300873
2025-03-05 18:00:00+00:00,248.11146164403849
2025-03-05 19:00:00+00:00,264.6900907420638
2025-03-05 20:00:00+00:00,251.87361031859476
2025-03-06 14:00:00+00:00,99.04137194284249
2025-03-06 15:00:00+00:00,75.1567240754024
2025-03-06 16:00:00+00:00,180.95128643096533
2025-03-06 17:00:00+00:00,184.08650334695366
2025-03-06 18:00:00+00:00,238.33513043478888
2025-03-06 19:00:00+00:00,186.47568942183565
2025-03-06 20:00:00+00:00,226.2880032479623
2025-03-07 14:00:00+00:00,293.34419949014716
2025-03-07 15:00:00+00:00,208.40359657840077
2025-03-07 17:00:00+00:00,239.3801761628257
2025-03-07 18:00:00+00:00,187.7297921346066
2025-03-07 19:00:00+00:00,202.08984963529923
2025-03-07 20:00:00+00:00,160.51536122473826
2025-03-10 13:00:00+00:00,446.7173726555734
2025-03-10 14:00:00+00:00,360.94070126864756
2025-03-10 15:00:00+00:00,384.82534913608737
2025-03-10 16:00:00+00:00,438.0956457344231
2025-03-10 17:00:00+00:00,413.6651924733689
2025-03-10 18:00:00+00:00,459.74786039959383
2025-03-10 19:00:00+00:00,430.1154211620132
2025-03-11 13:00:00+00:00,469.0683441174243
2025-03-11 14:00:00+00:00,529.3543964036083
2025-03-11 15:00:00+00:00,674.9474109803624
2025-03-11 16:00:00+00:00,690.7039129400221
2025-03-11 17:00:00+00:00,560.4360540018795
2025-03-11 18:00:00+00:00,525.3507922988423
2025-03-11 19:00:00+00:00,535.4012823925565
2025-03-12 13:00:00+00:00,680.6285668438429
2025-03-12 14:00:00+00:00,646.9726178348482
2025-03-12 15:00:00+00:00,620.6842930342344
2025-03-12 16:00:00+00:00,600.4718359391571
2025-03-12 17:00:00+00:00,632.6263422072141
2025-03-12 18:00:00+00:00,621.8483581129323
2025-03-12 19:00:00+00:00,595.2603891720312
2025-03-13 13:00:00+00:00,600.7404526369336
2025-03-13 14:00:00+00:00,561.9889393653119
2025-03-13 15:00:00+00:00,560.4788175915259
2025-03-13 17:00:00+00:00,577.0335747725381
2025-03-13 18:00:00+00:00,582.9526098735832
2025-03-13 19:00:00+00:00,566.4501568046945
2025-03-14 13:00:00+00:00,291.9238831141654
2025-03-14 14:00:00+00:00,335.9927153453305
2025-03-14 15:00:00+00:00,367.32556426462617
2025-03-14 16:00:00+00:00,315.25706626693733
2025-03-14 17:00:00+00:00,352.7564497791993
2025-03-14 18:00:00+00:00,323.63200268140366
2025-03-14 19:00:00+00:00,311.69003324030155
2025-03-17 13:00:00+00:00,346.24813670965716
2025-03-17 14:00:00+00:00,326.67718196331754
2025-03-17 15:00:00+00:00,338.0966684063419
2025-03-17 16:00:00+00:00,327.6323698645824
2025-03-17 17:00:00+00:00,320.27339738614256
2025-03-17 18:00:00+00:00,310.0034851635246
2025-03-17 19:00:00+00:00,315.3477331543689
2025-03-18 13:00:00+00:00,206.95437821771057
2025-03-18 14:00:00+00:00,207.12554221673795
2025-03-18 15:00:00+00:00,183.13644558880912
2025-03-18 16:00:00+00:00,183.8157611913783
2025-03-18 17:00:00+00:00,180.03904192664973
2025-03-18 18:00:00+00:00,173.23234322353468
2025-03-18 19:00:00+00:00,194.01958742881627
2025-03-19 13:00:00+00:00,464.9114038689346
2025-03-19 14:00:00+00:00,439.0411930377895
2025-03-19 15:00:00+00:00,407.6699016113083
2025-03-19 16:00:00+00:00,386.06107978914105
2025-03-19 17:00:00+00:00,407.5420507234063
2025-03-19 18:00:00+00:00,368.669624879592
2025-03-19 19:00:00+00:00,393.2864419832026
2025-03-20 13:00:00+00:00,738.392631831427
2025-03-20 14:00:00+00:00,769.6070906534184
2025-03-20 15:00:00+00:00,755.8879062481088
2025-03-20 16:00:00+00:00,723.0679459824164
2025-03-20 17:00:00+00:00,732.3456661106006
2025-03-20 18:00:00+00:00,711.0875340341281
2025-03-20 19:00:00+00:00,730.3601031468945
2025-03-21 13:00:00+00:00,821.1957895107936
2025-03-21 14:00:00+00:00,796.9976358981295
2025-03-21 15:00:00+00:00,792.9074906200558
2025-03-21 16:00:00+00:00,781.5780418111074
2025-03-21 17:00:00+00:00,758.9090541492524
2025-03-21 18:00:00+00:00,765.8732147102136
2025-03-21 19:00:00+00:00,764.4101347445865
2025-03-24 13:00:00+00:00,823.4232723772443
2025-03-24 14:00:00+00:00,834.4108629777404
2025-03-24 15:00:00+00:00,862.0577392516162
2025-03-24 16:00:00+00:00,859.7724524157452
2025-03-24 17:00:00+00:00,872.8268120767797
2025-03-24 18:00:00+00:00,863.0121180922223
2025-03-24 19:00:00+00:00,834.2156675979439
2025-03-25 13:00:00+00:00,866.5942712305102
2025-03-25 14:00:00+00:00,892.4644820616564
2025-03-25 15:00:00+00:00,843.2844104732723
2025-03-25 16:00:00+00:00,799.3485116266689
2025-03-25 17:00:00+00:00,813.0248800133659
2025-03-25 18:00:00+00:00,824.7056478213686
2025-03-25 19:00:00+00:00,814.0321922194518
2025-03-26 13:00:00+00:00,924.5005982324128
2025-03-26 14:00:00+00:00,868.8033023053662
2025-03-26 15:00:00+00:00,927.037625910786
2025-03-26 16:00:00+00:00,968.5365675455653
2025-03-26 17:00:00+00:00,986.8534195791341
2025-03-26 18:00:00+00:00,1004.3348323908782
2025-03-26 19:00:00+00:00,1007.7835550520897
2025-03-27 13:00:00+00:00,1184.8333882346162
2025-03-27 14:00:00+00:00,1134.3986644119823
2025-03-27 15:00:00+00:00,1205.6351232981917
2025-03-27 16:00:00+00:00,1185.070717950704
2025-03-27 17:00:00+00:00,1176.107132821099
2025-03-27 18:00:00+00:00,1184.8189771082004
2025-03-27 19:00:00+00:00,1208.3233242600018
2025-03-28 13:00:00+00:00,1217.3253518967906
2025-03-28 14:00:00+00:00,1227.3862071346757
2025-03-28 15:00:00+00:00,1243.941593569044
2025-03-28 16:00:00+00:00,1268.3625860394998
2025-03-28 17:00:00+00:00,1268.8851487694571
2025-03-28 18:00:00+00:00,1272.4383201911573
2025-03-28 19:00:00+00:00,1251.0762888756751
2025-03-31 13:00:00+00:00,1599.5410840191594
2025-03-31 14:00:00+00:00,1599.5410840191594
2025-03-31 15:00:00+00:00,1599.5410840191594
2025-03-31 16:00:00+00:00,1599.5410840191594
2025-03-31 17:00:00+00:00,1599.5410840191594
2025-03-31 18:00:00+00:00,1599.5410840191594
2025-03-31 19:00:00+00:00,1599.5410840191594
2025-04-01 13:00:00+00:00,1599.5410840191594
2025-04-01 14:00:00+00:00,1599.5410840191594
2025-04-01 15:00:00+00:00,1599.5410840191594
2025-04-01 16:00:00+00:00,1599.5410840191594
2025-04-01 17:00:00+00:00,1599.5410840191594
2025-04-01 18:00:00+00:00,1599.5410840191594
2025-04-01 19:00:00+00:00,1599.5410840191594
2025-04-02 13:00:00+00:00,1599.5410840191594
2025-04-02 14:00:00+00:00,1599.5410840191594
2025-04-02 16:00:00+00:00,1599.5410840191594
2025-04-02 17:00:00+00:00,1599.5410840191594
2025-04-02 18:00:00+00:00,1599.5410840191594
2025-04-02 19:00:00+00:00,1599.5410840191594
2025-04-03 13:00:00+00:00,1599.5410840191594
2025-04-03 14:00:00+00:00,1599.5410840191594
2025-04-03 15:00:00+00:00,1599.5410840191594
2025-04-03 16:00:00+00:00,1599.5410840191594
2025-04-03 17:00:00+00:00,1599.5410840191594
2025-04-03 18:00:00+00:00,1599.5410840191594
2025-04-03 19:00:00+00:00,1599.5410840191594
2025-04-04 13:00:00+00:00,1599.5410840191594
2025-04-04 14:00:00+00:00,1599.5410840191594
2025-04-04 15:00:00+00:00,1599.5410840191594
2025-04-04 16:00:00+00:00,1599.5410840191594
2025-04-04 17:00:00+00:00,1599.5410840191594
2025-04-04 18:00:00+00:00,1599.5410840191594
2025-04-04 19:00:00+00:00,1599.5410840191594
2025-04-07 13:00:00+00:00,1599.5410840191594
2025-04-07 14:00:00+00:00,1599.5410840191594
2025-04-07 15:00:00+00:00,1599.5410840191594
2025-04-07 16:00:00+00:00,1599.5410840191594
2025-04-07 17:00:00+00:00,1599.5410840191594
2025-04-07 18:00:00+00:00,1599.5410840191594
2025-04-07 19:00:00+00:00,1599.5410840191594
2025-04-08 13:00:00+00:00,1599.5410840191594
2025-04-08 14:00:00+00:00,1599.5410840191594
2025-04-08 15:00:00+00:00,1599.5410840191594
2025-04-08 16:00:00+00:00,1599.5410840191594
2025-04-08 17:00:00+00:00,1599.5410840191594
2025-04-08 18:00:00+00:00,1599.5410840191594
2025-04-08 19:00:00+00:00,1599.5410840191594
2025-04-09 13:00:00+00:00,1599.5410840191594
2025-04-09 14:00:00+00:00,1599.5410840191594
2025-04-09 15:00:00+00:00,1599.5410840191594
2025-04-09 16:00:00+00:00,1599.5410840191594
2025-04-09 17:00:00+00:00,1599.5410840191594
2025-04-09 18:00:00+00:00,1599.5410840191594
2025-04-09 19:00:00+00:00,1599.5410840191594
2025-04-10 13:00:00+00:00,1599.5410840191594
2025-04-10 14:00:00+00:00,1599.5410840191594
2025-04-10 15:00:00+00:00,1599.5410840191594
2025-04-10 16:00:00+00:00,1599.5410840191594
2025-04-10 17:00:00+00:00,1599.5410840191594
2025-04-10 18:00:00+00:00,1599.5410840191594
2025-04-10 19:00:00+00:00,1599.5410840191594
2025-04-11 13:00:00+00:00,1599.5410840191594
2025-04-11 14:00:00+00:00,1599.5410840191594
2025-04-11 15:00:00+00:00,1599.5410840191594
2025-04-11 16:00:00+00:00,1599.5410840191594
2025-04-11 17:00:00+00:00,1599.5410840191594
2025-04-11 18:00:00+00:00,1599.5410840191594
2025-04-11 19:00:00+00:00,1599.5410840191594
2025-04-14 13:00:00+00:00,1599.5410840191594
2025-04-14 14:00:00+00:00,1599.5410840191594
2025-04-14 15:00:00+00:00,1599.5410840191594
2025-04-14 16:00:00+00:00,1599.5410840191594
2025-04-14 17:00:00+00:00,1599.5410840191594
2025-04-14 18:00:00+00:00,1599.5410840191594
2025-04-14 19:00:00+00:00,1599.5410840191594
2025-04-15 13:00:00+00:00,1599.5410840191594
2025-04-15 14:00:00+00:00,1599.5410840191594
2025-04-15 15:00:00+00:00,1599.5410840191594
2025-04-15 16:00:00+00:00,1599.5410840191594
2025-04-15 17:00:00+00:00,1599.5410840191594
2025-04-15 18:00:00+00:00,1599.5410840191594
2025-04-15 19:00:00+00:00,1599.5410840191594
2025-04-16 13:00:00+00:00,1599.5410840191594
2025-04-16 14:00:00+00:00,1599.5410840191594
2025-04-16 15:00:00+00:00,1599.5410840191594
2025-04-16 17:00:00+00:00,1599.5410840191594
2025-04-16 18:00:00+00:00,1599.5410840191594
2025-04-16 19:00:00+00:00,1599.5410840191594
2025-04-17 13:00:00+00:00,1599.5410840191594
2025-04-17 14:00:00+00:00,1599.5410840191594
2025-04-17 15:00:00+00:00,1599.5410840191594
2025-04-17 16:00:00+00:00,1599.5410840191594
2025-04-17 17:00:00+00:00,1599.5410840191594
2025-04-17 18:00:00+00:00,1599.5410840191594
2025-04-17 19:00:00+00:00,1599.5410840191594
2025-04-21 13:00:00+00:00,1599.5410840191594
2025-04-21 14:00:00+00:00,1599.5410840191594
2025-04-21 15:00:00+00:00,1599.5410840191594
2025-04-21 16:00:00+00:00,1599.5410840191594
2025-04-21 17:00:00+00:00,1599.5410840191594
2025-04-21 18:00:00+00:00,1599.5410840191594
2025-04-21 19:00:00+00:00,1599.5410840191594
2025-04-22 13:00:00+00:00,1599.5410840191594
2025-04-22 14:00:00+00:00,1599.5410840191594
2025-04-22 15:00:00+00:00,1599.5410840191594
2025-04-22 16:00:00+00:00,1599.5410840191594
2025-04-22 17:00:00+00:00,1599.5410840191594
2025-04-22 18:00:00+00:00,1599.5410840191594
2025-04-22 19:00:00+00:00,1599.5410840191594
2025-04-23 13:00:00+00:00,1599.5410840191594
2025-04-23 14:00:00+00:00,1599.5410840191594
2025-04-23 15:00:00+00:00,1599.5410840191594
2025-04-23 16:00:00+00:00,1599.5410840191594
2025-04-23 17:00:00+00:00,1599.5410840191594
2025-04-23 18:00:00+00:00,1599.5410840191594
2025-04-23 19:00:00+00:00,1599.5410840191594
2025-04-24 13:00:00+00:00,1599.5410840191594
2025-04-24 14:00:00+00:00,1599.5410840191594
2025-04-24 16:00:00+00:00,1599.5410840191594
2025-04-24 17:00:00+00:00,1599.5410840191594
2025-04-24 18:00:00+00:00,1599.5410840191594
2025-04-24 19:00:00+00:00,1599.5410840191594
2025-04-25 13:00:00+00:00,1599.5410840191594
2025-04-25 14:00:00+00:00,1599.5410840191594
2025-04-25 15:00:00+00:00,1599.5410840191594
2025-04-25 16:00:00+00:00,1599.5410840191594
2025-04-25 17:00:00+00:00,1599.5410840191594
2025-04-25 18:00:00+00:00,1599.5410840191594
2025-04-25 19:00:00+00:00,1599.5410840191594
2025-04-28 13:00:00+00:00,1599.5410840191594
2025-04-28 14:00:00+00:00,1599.5410840191594
2025-04-28 15:00:00+00:00,1599.5410840191594
2025-04-28 16:00:00+00:00,1599.5410840191594
2025-04-28 17:00:00+00:00,1599.5410840191594
2025-04-28 18:00:00+00:00,1599.5410840191594
2025-04-28 19:00:00+00:00,1599.5410840191594
2025-04-29 13:00:00+00:00,1599.5410840191594
2025-04-29 14:00:00+00:00,1599.5410840191594
2025-04-29 15:00:00+00:00,1599.5410840191594
2025-04-29 16:00:00+00:00,1599.5410840191594
2025-04-29 17:00:00+00:00,1599.5410840191594
2025-04-29 19:00:00+00:00,1599.5410840191594
2025-04-30 13:00:00+00:00,1599.5410840191594
2025-04-30 14:00:00+00:00,1599.5410840191594
2025-04-30 15:00:00+00:00,1599.5410840191594
2025-04-30 16:00:00+00:00,1599.5410840191594
2025-04-30 17:00:00+00:00,1599.5410840191594
2025-04-30 18:00:00+00:00,1599.5410840191594
2025-05-01 13:00:00+00:00,1599.5410840191594
2025-05-01 14:00:00+00:00,1599.5410840191594
2025-05-01 15:00:00+00:00,1599.5410840191594
2025-05-01 16:00:00+00:00,1599.5410840191594
2025-05-01 17:00:00+00:00,1599.5410840191594
2025-05-01 18:00:00+00:00,1599.5410840191594
2025-05-01 19:00:00+00:00,1599.5410840191594
2025-05-02 13:00:00+00:00,1599.5410840191594
2025-05-02 14:00:00+00:00,1599.5410840191594
2025-05-02 15:00:00+00:00,1599.5410840191594
2025-05-02 16:00:00+00:00,1599.5410840191594
2025-05-02 17:00:00+00:00,1599.5410840191594
2025-05-02 18:00:00+00:00,1599.5410840191594
2025-05-02 19:00:00+00:00,1599.5410840191594
2025-05-05 13:00:00+00:00,1599.5410840191594
2025-05-05 14:00:00+00:00,1599.5410840191594
2025-05-05 15:00:00+00:00,1599.5410840191594
2025-05-05 16:00:00+00:00,1599.5410840191594
2025-05-05 17:00:00+00:00,1599.5410840191594
2025-05-05 18:00:00+00:00,1599.5410840191594
2025-05-05 19:00:00+00:00,1599.5410840191594
2025-05-06 13:00:00+00:00,1599.5410840191594
2025-05-06 14:00:00+00:00,1599.5410840191594
2025-05-06 15:00:00+00:00,1599.5410840191594
2025-05-06 16:00:00+00:00,1599.5410840191594
2025-05-06 17:00:00+00:00,1599.5410840191594
2025-05-06 18:00:00+00:00,1599.5410840191594
2025-05-06 19:00:00+00:00,1599.5410840191594
2025-05-07 13:00:00+00:00,1599.5410840191594
2025-05-07 15:00:00+00:00,1599.5410840191594
2025-05-07 17:00:00+00:00,1599.5410840191594
2025-05-07 18:00:00+00:00,1599.5410840191594
2025-05-07 19:00:00+00:00,1599.5410840191594
2025-05-08 13:00:00+00:00,1599.5410840191594
2025-05-08 14:00:00+00:00,1599.5410840191594
2025-05-08 15:00:00+00:00,1599.5410840191594
2025-05-08 16:00:00+00:00,1599.5410840191594
2025-05-08 17:00:00+00:00,1599.5410840191594
2025-05-08 18:00:00+00:00,1599.5410840191594
2025-05-08 19:00:00+00:00,1599.5410840191594
2025-05-09 13:00:00+00:00,1599.5410840191594
2025-05-09 14:00:00+00:00,1599.5410840191594
2025-05-09 15:00:00+00:00,1599.5410840191594
2025-05-09 16:00:00+00:00,1599.5410840191594
2025-05-09 17:00:00+00:00,1599.5410840191594
2025-05-09 18:00:00+00:00,1599.5410840191594
2025-05-09 19:00:00+00:00,1599.5410840191594
2025-05-12 13:00:00+00:00,1599.5410840191594
2025-05-12 14:00:00+00:00,1599.5410840191594
2025-05-12 15:00:00+00:00,1599.5410840191594
2025-05-12 16:00:00+00:00,1599.5410840191594
2025-05-12 17:00:00+00:00,1599.5410840191594
2025-05-12 18:00:00+00:00,1599.5410840191594
2025-05-12 19:00:00+00:00,1599.5410840191594
2025-05-13 13:00:00+00:00,1599.5410840191594
2025-05-13 14:00:00+00:00,1599.5410840191594
2025-05-13 15:00:00+00:00,1599.5410840191594
2025-05-13 17:00:00+00:00,1599.5410840191594
2025-05-13 18:00:00+00:00,1599.5410840191594
2025-05-13 19:00:00+00:00,1599.5410840191594
2025-05-14 13:00:00+00:00,1599.5410840191594
2025-05-14 14:00:00+00:00,1599.5410840191594
2025-05-14 15:00:00+00:00,1599.5410840191594
2025-05-14 16:00:00+00:00,1599.5410840191594
2025-05-14 17:00:00+00:00,1599.5410840191594
2025-05-14 18:00:00+00:00,1599.5410840191594
2025-05-14 19:00:00+00:00,1599.5410840191594
2025-05-15 13:00:00+00:00,1599.5410840191594
2025-05-15 14:00:00+00:00,1599.5410840191594
2025-05-15 15:00:00+00:00,1599.5410840191594
2025-05-15 16:00:00+00:00,1599.5410840191594
2025-05-15 17:00:00+00:00,1599.5410840191594
2025-05-15 18:00:00+00:00,1599.5410840191594
2025-05-15 19:00:00+00:00,1599.5410840191594
2025-05-16 13:00:00+00:00,1599.5410840191594
2025-05-16 14:00:00+00:00,1599.5410840191594
2025-05-16 15:00:00+00:00,1599.5410840191594
2025-05-16 16:00:00+00:00,1599.5410840191594
2025-05-16 17:00:00+00:00,1599.5410840191594
2025-05-16 18:00:00+00:00,1599.5410840191594
2025-05-16 19:00:00+00:00,1599.5410840191594
2025-05-19 13:00:00+00:00,1599.5410840191594
2025-05-19 14:00:00+00:00,1599.5410840191594
2025-05-19 15:00:00+00:00,1599.5410840191594
2025-05-19 16:00:00+00:00,1599.5410840191594
2025-05-19 17:00:00+00:00,1599.5410840191594
2025-05-19 18:00:00+00:00,1599.5410840191594
2025-05-19 19:00:00+00:00,1599.5410840191594
2025-05-20 13:00:00+00:00,1599.5410840191594
2025-05-20 14:00:00+00:00,1599.5410840191594
2025-05-20 15:00:00+00:00,1599.5410840191594
2025-05-20 16:00:00+00:00,1599.5410840191594
2025-05-20 17:00:00+00:00,1599.5410840191594
2025-05-20 18:00:00+00:00,1599.5410840191594
2025-05-20 19:00:00+00:00,1599.5410840191594
2025-05-21 13:00:00+00:00,1599.5410840191594
2025-05-21 14:00:00+00:00,1599.5410840191594
2025-05-21 15:00:00+00:00,1599.5410840191594
2025-05-21 16:00:00+00:00,1599.5410840191594
2025-05-21 17:00:00+00:00,1599.5410840191594
2025-05-21 18:00:00+00:00,1599.5410840191594
2025-05-21 19:00:00+00:00,1599.5410840191594
2025-05-22 13:00:00+00:00,1599.5410840191594
2025-05-22 14:00:00+00:00,1599.5410840191594
2025-05-22 16:00:00+00:00,1599.5410840191594
2025-05-22 17:00:00+00:00,1599.5410840191594
2025-05-22 18:00:00+00:00,1599.5410840191594
2025-05-22 19:00:00+00:00,1599.5410840191594
2025-05-23 13:00:00+00:00,1599.5410840191594
2025-05-23 14:00:00+00:00,1599.5410840191594
2025-05-23 15:00:00+00:00,1599.5410840191594
2025-05-23 16:00:00+00:00,1599.5410840191594
2025-05-23 17:00:00+00:00,1599.5410840191594
2025-05-23 18:00:00+00:00,1599.5410840191594
2025-05-23 19:00:00+00:00,1599.5410840191594
2025-05-27 13:00:00+00:00,1599.5410840191594
2025-05-27 14:00:00+00:00,1599.5410840191594
2025-05-27 15:00:00+00:00,1599.5410840191594
2025-05-27 16:00:00+00:00,1599.5410840191594
2025-05-27 17:00:00+00:00,1599.5410840191594
2025-05-27 18:00:00+00:00,1599.5410840191594
2025-05-27 19:00:00+00:00,1599.5410840191594
2025-05-28 13:00:00+00:00,1599.5410840191594
2025-05-28 14:00:00+00:00,1599.5410840191594
2025-05-28 15:00:00+00:00,1599.5410840191594
2025-05-28 16:00:00+00:00,1599.5410840191594
2025-05-28 17:00:00+00:00,1599.5410840191594
2025-05-28 18:00:00+00:00,1599.5410840191594
2025-05-28 19:00:00+00:00,1599.5410840191594
2025-05-29 13:00:00+00:00,1599.5410840191594
2025-05-29 14:00:00+00:00,1599.5410840191594
2025-05-29 15:00:00+00:00,1599.5410840191594
2025-05-29 16:00:00+00:00,1599.5410840191594
2025-05-29 17:00:00+00:00,1599.5410840191594
2025-05-29 18:00:00+00:00,1599.5410840191594
2025-05-29 19:00:00+00:00,1599.5410840191594
2025-05-30 13:00:00+00:00,1599.5410840191594
2025-05-30 14:00:00+00:00,1599.5410840191594
2025-05-30 15:00:00+00:00,1599.5410840191594
2025-05-30 16:00:00+00:00,1599.5410840191594
2025-05-30 17:00:00+00:00,1599.5410840191594
2025-05-30 18:00:00+00:00,1599.5410840191594
2025-05-30 19:00:00+00:00,1599.5410840191594
2025-06-02 13:00:00+00:00,1599.5410840191594
2025-06-02 14:00:00+00:00,1599.5410840191594
2025-06-02 15:00:00+00:00,1599.5410840191594
2025-06-02 16:00:00+00:00,1599.5410840191594
2025-06-02 17:00:00+00:00,1599.5410840191594
2025-06-02 18:00:00+00:00,1599.5410840191594
2025-06-02 19:00:00+00:00,1599.5410840191594
2025-06-03 13:00:00+00:00,1599.5410840191594
2025-06-03 14:00:00+00:00,1599.5410840191594
2025-06-03 15:00:00+00:00,1599.5410840191594
2025-06-03 16:00:00+00:00,1599.5410840191594
2025-06-03 17:00:00+00:00,1599.5410840191594
2025-06-03 18:00:00+00:00,1599.5410840191594
2025-06-03 19:00:00+00:00,1599.5410840191594
2025-06-04 13:00:00+00:00,1599.5410840191594
2025-06-04 14:00:00+00:00,1599.5410840191594
2025-06-04 15:00:00+00:00,1599.5410840191594
2025-06-04 16:00:00+00:00,1599.5410840191594
2025-06-04 17:00:00+00:00,1599.5410840191594
2025-06-04 18:00:00+00:00,1599.5410840191594
2025-06-04 19:00:00+00:00,1599.5410840191594
2025-06-05 13:00:00+00:00,1599.5410840191594
2025-06-05 14:00:00+00:00,1599.5410840191594
2025-06-05 15:00:00+00:00,1599.5410840191594
2025-06-05 16:00:00+00:00,1599.5410840191594
2025-06-05 17:00:00+00:00,1599.5410840191594
2025-06-05 18:00:00+00:00,1599.5410840191594
2025-06-05 19:00:00+00:00,1599.5410840191594
2025-06-06 13:00:00+00:00,1599.5410840191594
2025-06-06 14:00:00+00:00,1599.5410840191594
2025-06-06 15:00:00+00:00,1599.5410840191594
2025-06-06 16:00:00+00:00,1599.5410840191594
2025-06-06 17:00:00+00:00,1599.5410840191594
2025-06-06 18:00:00+00:00,1599.5410840191594
2025-06-06 19:00:00+00:00,1599.5410840191594
2025-06-09 13:00:00+00:00,1599.5410840191594
2025-06-09 14:00:00+00:00,1599.5410840191594
2025-06-09 15:00:00+00:00,1599.5410840191594
2025-06-09 16:00:00+00:00,1599.5410840191594
2025-06-09 17:00:00+00:00,1599.5410840191594
2025-06-09 18:00:00+00:00,1599.5410840191594
2025-06-09 19:00:00+00:00,1599.5410840191594
2025-06-10 13:00:00+00:00,1599.5410840191594
2025-06-10 14:00:00+00:00,1599.5410840191594
2025-06-10 15:00:00+00:00,1599.5410840191594
2025-06-10 16:00:00+00:00,1599.5410840191594
2025-06-10 17:00:00+00:00,1599.5410840191594
2025-06-10 18:00:00+00:00,1599.5410840191594
2025-06-10 19:00:00+00:00,1599.5410840191594
2025-06-11 13:00:00+00:00,1599.5410840191594
2025-06-11 14:00:00+00:00,1599.5410840191594
2025-06-11 15:00:00+00:00,1599.5410840191594
2025-06-11 16:00:00+00:00,1599.5410840191594
2025-06-11 18:00:00+00:00,1599.5410840191594
2025-06-11 19:00:00+00:00,1599.5410840191594
2025-06-12 13:00:00+00:00,1599.5410840191594
2025-06-12 14:00:00+00:00,1599.5410840191594
2025-06-12 15:00:00+00:00,1599.5410840191594
2025-06-12 17:00:00+00:00,1599.5410840191594
2025-06-12 18:00:00+00:00,1599.5410840191594
2025-06-12 19:00:00+00:00,1599.5410840191594
2025-06-13 13:00:00+00:00,1599.5410840191594
2025-06-13 14:00:00+00:00,1599.5410840191594
2025-06-13 15:00:00+00:00,1599.5410840191594
2025-06-13 16:00:00+00:00,1599.5410840191594
2025-06-13 17:00:00+00:00,1599.5410840191594
2025-06-13 18:00:00+00:00,1599.5410840191594
2025-06-13 19:00:00+00:00,1599.5410840191594
2025-06-16 13:00:00+00:00,1599.5410840191594
2025-06-16 14:00:00+00:00,1599.5410840191594
2025-06-16 15:00:00+00:00,1599.5410840191594
2025-06-16 16:00:00+00:00,1599.5410840191594
2025-06-16 17:00:00+00:00,1599.5410840191594
2025-06-16 18:00:00+00:00,1599.5410840191594
2025-06-16 19:00:00+00:00,1599.5410840191594
2025-06-17 13:00:00+00:00,1599.5410840191594
2025-06-17 14:00:00+00:00,1599.5410840191594
2025-06-17 15:00:00+00:00,1599.5410840191594
2025-06-17 16:00:00+00:00,1599.5410840191594
2025-06-17 17:00:00+00:00,1599.5410840191594
2025-06-17 18:00:00+00:00,1599.5410840191594
2025-06-17 19:00:00+00:00,1599.5410840191594
2025-06-18 13:00:00+00:00,1599.5410840191594
2025-06-18 15:00:00+00:00,1599.5410840191594
2025-06-18 17:00:00+00:00,1599.5410840191594
2025-06-18 18:00:00+00:00,1599.5410840191594
2025-06-18 19:00:00+00:00,1599.5410840191594
2025-06-20 13:00:00+00:00,1599.5410840191594
2025-06-20 14:00:00+00:00,1599.5410840191594
2025-06-20 15:00:00+00:00,1599.5410840191594
2025-06-20 16:00:00+00:00,1599.5410840191594
2025-06-20 18:00:00+00:00,1599.5410840191594
2025-06-20 19:00:00+00:00,1599.5410840191594
2025-06-23 13:00:00+00:00,1599.5410840191594
2025-06-23 14:00:00+00:00,1599.5410840191594
2025-06-23 16:00:00+00:00,1599.5410840191594
2025-06-23 17:00:00+00:00,1599.5410840191594
2025-06-23 19:00:00+00:00,1599.5410840191594
2025-06-24 13:00:00+00:00,1599.5410840191594
2025-06-24 14:00:00+00:00,1599.5410840191594
2025-06-25 13:00:00+00:00,1599.5410840191594
2025-06-25 14:00:00+00:00,1599.5410840191594
2025-06-25 15:00:00+00:00,1599.5410840191594
2025-06-25 16:00:00+00:00,1599.5410840191594
2025-06-25 17:00:00+00:00,1599.5410840191594
2025-06-25 19:00:00+00:00,1599.5410840191594
2025-06-26 13:00:00+00:00,1599.5410840191594
2025-06-26 14:00:00+00:00,1599.5410840191594
2025-06-26 19:00:00+00:00,1599.5410840191594
2025-06-27 13:00:00+00:00,1599.5410840191594
2025-06-27 14:00:00+00:00,1599.5410840191594
2025-06-27 15:00:00+00:00,1599.5410840191594
2025-06-27 16:00:00+00:00,1599.5410840191594
2025-06-27 17:00:00+00:00,1599.5410840191594
2025-06-27 18:00:00+00:00,1599.5410840191594
2025-06-27 19:00:00+00:00,1599.5410840191594
2025-06-30 13:00:00+00:00,1599.5410840191594
2025-06-30 14:00:00+00:00,1599.5410840191594
2025-06-30 15:00:00+00:00,1599.5410840191594
2025-06-30 16:00:00+00:00,1599.5410840191594
2025-06-30 17:00:00+00:00,1599.5410840191594
2025-06-30 19:00:00+00:00,1599.5410840191594
2025-07-01 13:00:00+00:00,1599.5410840191594
2025-07-01 14:00:00+00:00,1599.5410840191594
2025-07-01 15:00:00+00:00,1599.5410840191594
2025-07-01 16:00:00+00:00,1599.5410840191594
2025-07-01 17:00:00+00:00,1599.5410840191594
2025-07-01 18:00:00+00:00,1599.5410840191594
2025-07-01 19:00:00+00:00,1599.5410840191594
2025-07-02 13:00:00+00:00,1599.5410840191594
2025-07-02 14:00:00+00:00,1599.5410840191594
2025-07-02 15:00:00+00:00,1599.5410840191594
2025-07-02 16:00:00+00:00,1599.5410840191594
2025-07-02 17:00:00+00:00,1599.5410840191594
2025-07-02 18:00:00+00:00,1599.5410840191594
2025-07-02 19:00:00+00:00,1599.5410840191594
2025-07-03 13:00:00+00:00,1599.5410840191594
2025-07-03 14:00:00+00:00,1599.5410840191594
2025-07-03 15:00:00+00:00,1599.5410840191594
2025-07-07 13:00:00+00:00,1599.5410840191594
2025-07-07 14:00:00+00:00,1599.5410840191594
2025-07-07 15:00:00+00:00,1599.5410840191594
2025-07-07 16:00:00+00:00,1599.5410840191594
2025-07-07 17:00:00+00:00,1599.5410840191594
2025-07-07 18:00:00+00:00,1599.5410840191594
2025-07-07 19:00:00+00:00,1599.5410840191594
2025-07-08 13:00:00+00:00,1599.5410840191594
2025-07-08 14:00:00+00:00,1599.5410840191594
2025-07-08 15:00:00+00:00,1599.5410840191594
2025-07-08 16:00:00+00:00,1599.5410840191594
2025-07-08 17:00:00+00:00,1599.5410840191594
2025-07-08 18:00:00+00:00,1599.5410840191594
2025-07-08 19:00:00+00:00,1599.5410840191594
2025-07-09 13:00:00+00:00,1599.5410840191594
2025-07-09 14:00:00+00:00,1599.5410840191594
2025-07-09 15:00:00+00:00,1599.5410840191594
2025-07-09 16:00:00+00:00,1599.5410840191594
2025-07-09 17:00:00+00:00,1599.5410840191594
2025-07-09 18:00:00+00:00,1599.5410840191594
2025-07-09 19:00:00+00:00,1599.5410840191594
2025-07-10 13:00:00+00:00,1599.5410840191594
2025-07-10 14:00:00+00:00,1599.5410840191594
2025-07-10 15:00:00+00:00,1599.5410840191594
2025-07-10 16:00:00+00:00,1599.5410840191594
2025-07-10 17:00:00+00:00,1599.5410840191594
2025-07-10 18:00:00+00:00,1599.5410840191594
2025-07-10 19:00:00+00:00,1599.5410840191594
2025-07-11 13:00:00+00:00,1599.5410840191594
2025-07-11 14:00:00+00:00,1599.5410840191594
2025-07-11 15:00:00+00:00,1599.5410840191594
2025-07-11 16:00:00+00:00,1599.5410840191594
2025-07-11 17:00:00+00:00,1599.5410840191594
2025-07-11 18:00:00+00:00,1599.5410840191594
2025-07-11 19:00:00+00:00,1599.5410840191594
2025-07-14 13:00:00+00:00,1599.5410840191594
2025-07-14 14:00:00+00:00,1599.5410840191594
2025-07-14 15:00:00+00:00,1599.5410840191594
2025-07-14 16:00:00+00:00,1599.5410840191594
2025-07-14 17:00:00+00:00,1599.5410840191594
2025-07-14 19:00:00+00:00,1599.5410840191594
2025-07-15 13:00:00+00:00,1599.5410840191594
2025-07-15 14:00:00+00:00,1599.5410840191594
2025-07-15 15:00:00+00:00,1599.5410840191594
2025-07-15 16:00:00+00:00,1599.5410840191594
2025-07-15 17:00:00+00:00,1599.5410840191594
2025-07-15 19:00:00+00:00,1599.5410840191594
2025-07-16 13:00:00+00:00,1599.5410840191594
2025-07-16 14:00:00+00:00,1599.5410840191594
2025-07-16 15:00:00+00:00,1599.5410840191594
2025-07-16 16:00:00+00:00,1599.5410840191594
2025-07-16 17:00:00+00:00,1599.5410840191594
2025-07-16 19:00:00+00:00,1599.5410840191594
2025-07-17 13:00:00+00:00,1599.5410840191594
2025-07-17 15:00:00+00:00,1599.5410840191594
2025-07-17 16:00:00+00:00,1599.5410840191594
2025-07-17 17:00:00+00:00,1599.5410840191594
2025-07-18 13:00:00+00:00,1599.5410840191594
2025-07-18 17:00:00+00:00,1599.5410840191594
2025-07-18 19:00:00+00:00,1599.5410840191594
2025-07-21 13:00:00+00:00,1599.5410840191594
2025-07-21 14:00:00+00:00,1599.5410840191594
2025-07-21 16:00:00+00:00,1599.5410840191594
2025-07-21 19:00:00+00:00,1599.5410840191594
2025-07-22 13:00:00+00:00,1599.5410840191594
2025-07-22 14:00:00+00:00,1599.5410840191594
2025-07-22 15:00:00+00:00,1599.5410840191594
2025-07-22 18:00:00+00:00,1599.5410840191594
2025-07-22 19:00:00+00:00,1599.5410840191594
2025-07-23 13:00:00+00:00,1599.5410840191594
2025-07-23 14:00:00+00:00,1599.5410840191594
2025-07-23 15:00:00+00:00,1599.5410840191594
2025-07-23 16:00:00+00:00,1599.5410840191594
2025-07-23 17:00:00+00:00,1599.5410840191594
2025-07-23 18:00:00+00:00,1599.5410840191594
2025-07-23 19:00:00+00:00,1599.5410840191594
2025-07-24 13:00:00+00:00,1599.5410840191594
2025-07-24 14:00:00+00:00,1599.5410840191594
2025-07-24 15:00:00+00:00,1599.5410840191594
2025-07-24 16:00:00+00:00,1599.5410840191594
2025-07-24 19:00:00+00:00,1599.5410840191594
2025-07-25 13:00:00+00:00,1599.5410840191594
2025-07-25 14:00:00+00:00,1599.5410840191594
2025-07-25 15:00:00+00:00,1599.5410840191594
2025-07-25 16:00:00+00:00,1599.5410840191594
2025-07-25 17:00:00+00:00,1599.5410840191594
2025-07-25 18:00:00+00:00,1599.5410840191594
2025-07-28 13:00:00+00:00,1599.5410840191594
2025-07-28 14:00:00+00:00,1599.5410840191594
2025-07-28 15:00:00+00:00,1599.5410840191594
2025-07-28 16:00:00+00:00,1599.5410840191594
2025-07-28 17:00:00+00:00,1599.5410840191594
2025-07-28 18:00:00+00:00,1599.5410840191594
2025-07-28 19:00:00+00:00,1599.5410840191594
2025-07-29 13:00:00+00:00,1599.5410840191594
2025-07-29 14:00:00+00:00,1599.5410840191594
2025-07-29 15:00:00+00:00,1599.5410840191594
2025-07-29 16:00:00+00:00,1599.5410840191594
2025-07-29 17:00:00+00:00,1599.5410840191594
2025-07-29 18:00:00+00:00,1599.5410840191594
2025-07-29 19:00:00+00:00,1599.5410840191594
2025-07-30 13:00:00+00:00,1599.5410840191594
2025-07-30 14:00:00+00:00,1599.5410840191594
2025-07-30 15:00:00+00:00,1599.5410840191594
2025-07-30 16:00:00+00:00,1599.5410840191594
2025-07-30 17:00:00+00:00,1599.5410840191594
2025-07-30 18:00:00+00:00,1599.5410840191594
2025-07-30 19:00:00+00:00,1599.5410840191594
2025-07-31 13:00:00+00:00,1599.5410840191594
2025-07-31 16:00:00+00:00,1599.5410840191594
2025-07-31 17:00:00+00:00,1599.5410840191594
2025-07-31 18:00:00+00:00,1599.5410840191594
2025-07-31 19:00:00+00:00,1599.5410840191594
2025-08-01 13:00:00+00:00,1599.5410840191594
2025-08-01 14:00:00+00:00,1599.5410840191594
2025-08-01 15:00:00+00:00,1599.5410840191594
2025-08-01 16:00:00+00:00,1599.5410840191594
2025-08-01 17:00:00+00:00,1599.5410840191594
2025-08-04 13:00:00+00:00,1599.5410840191594
2025-08-04 14:00:00+00:00,1599.5410840191594
2025-08-04 15:00:00+00:00,1599.5410840191594
2025-08-04 17:00:00+00:00,1599.5410840191594
2025-08-04 18:00:00+00:00,1599.5410840191594
2025-08-04 19:00:00+00:00,1599.5410840191594
2025-08-05 13:00:00+00:00,1599.5410840191594
2025-08-05 14:00:00+00:00,1599.5410840191594
2025-08-05 16:00:00+00:00,1599.5410840191594
2025-08-05 17:00:00+00:00,1599.5410840191594
2025-08-05 19:00:00+00:00,1599.5410840191594
2025-08-06 13:00:00+00:00,1599.5410840191594
2025-08-06 15:00:00+00:00,1599.5410840191594
2025-08-06 19:00:00+00:00,1599.5410840191594
2025-08-07 13:00:00+00:00,1599.5410840191594
2025-08-07 14:00:00+00:00,1599.5410840191594
2025-08-07 15:00:00+00:00,1599.5410840191594
2025-08-07 16:00:00+00:00,1599.5410840191594
2025-08-07 17:00:00+00:00,1599.5410840191594
2025-08-07 18:00:00+00:00,1599.5410840191594
2025-08-07 19:00:00+00:00,1599.5410840191594
2025-08-08 13:00:00+00:00,1599.5410840191594
2025-08-08 14:00:00+00:00,1599.5410840191594
2025-08-08 16:00:00+00:00,1599.5410840191594
2025-08-08 17:00:00+00:00,1599.5410840191594
2025-08-08 18:00:00+00:00,1599.5410840191594
2025-08-08 19:00:00+00:00,1599.5410840191594
2025-08-11 13:00:00+00:00,1599.5410840191594
2025-08-11 14:00:00+00:00,1599.5410840191594
2025-08-11 15:00:00+00:00,1599.5410840191594
2025-08-11 18:00:00+00:00,1599.5410840191594
2025-08-11 19:00:00+00:00,1599.5410840191594
2025-08-12 13:00:00+00:00,1599.5410840191594
2025-08-12 14:00:00+00:00,1599.5410840191594
2025-08-12 15:00:00+00:00,1599.5410840191594
2025-08-12 16:00:00+00:00,1599.5410840191594
2025-08-12 17:00:00+00:00,1599.5410840191594
2025-08-12 18:00:00+00:00,1599.5410840191594
2025-08-13 13:00:00+00:00,1599.5410840191594
2025-08-13 14:00:00+00:00,1599.5410840191594
2025-08-13 15:00:00+00:00,1599.5410840191594
2025-08-13 16:00:00+00:00,1599.5410840191594
2025-08-13 18:00:00+00:00,1599.5410840191594
2025-08-13 19:00:00+00:00,1599.5410840191594
2025-08-14 13:00:00+00:00,1599.5410840191594
2025-08-14 14:00:00+00:00,1599.5410840191594
2025-08-14 15:00:00+00:00,1599.5410840191594
2025-08-14 16:00:00+00:00,1599.5410840191594
2025-08-14 18:00:00+00:00,1599.5410840191594
2025-08-15 13:00:00+00:00,1599.5410840191594
2025-08-15 14:00:00+00:00,1599.5410840191594
2025-08-15 16:00:00+00:00,1599.5410840191594
2025-08-15 17:00:00+00:00,1599.5410840191594
2025-08-15 18:00:00+00:00,1599.5410840191594
2025-08-18 13:00:00+00:00,1599.5410840191594
2025-08-18 14:00:00+00:00,1599.5410840191594
2025-08-18 15:00:00+00:00,1599.5410840191594
2025-08-18 16:00:00+00:00,1599.5410840191594
2025-08-18 18:00:00+00:00,1599.5410840191594
2025-08-18 19:00:00+00:00,1599.5410840191594
2025-08-19 13:00:00+00:00,1599.5410840191594
2025-08-19 14:00:00+00:00,1599.5410840191594
2025-08-19 15:00:00+00:00,1599.5410840191594
2025-08-19 17:00:00+00:00,1599.5410840191594
2025-08-19 18:00:00+00:00,1599.5410840191594
2025-08-19 19:00:00+00:00,1599.5410840191594
2025-08-20 13:00:00+00:00,1599.5410840191594
2025-08-20 15:00:00+00:00,1599.5410840191594
2025-08-20 16:00:00+00:00,1599.5410840191594
2025-08-20 17:00:00+00:00,1599.5410840191594
2025-08-21 13:00:00+00:00,1599.5410840191594
2025-08-21 14:00:00+00:00,1599.5410840191594
2025-08-21 18:00:00+00:00,1599.5410840191594
2025-08-21 19:00:00+00:00,1599.5410840191594
2025-08-22 13:00:00+00:00,1599.5410840191594
2025-08-22 14:00:00+00:00,1599.5410840191594
2025-08-22 15:00:00+00:00,1599.5410840191594
2025-08-22 16:00:00+00:00,1599.5410840191594
2025-08-22 18:00:00+00:00,1599.5410840191594
2025-08-22 19:00:00+00:00,1599.5410840191594
2025-08-25 13:00:00+00:00,1599.5410840191594
2025-08-25 14:00:00+00:00,1599.5410840191594
2025-08-25 15:00:00+00:00,1599.5410840191594
2025-08-25 17:00:00+00:00,1599.5410840191594
2025-08-26 13:00:00+00:00,1599.5410840191594
2025-08-26 14:00:00+00:00,1599.5410840191594
2025-08-26 18:00:00+00:00,1599.5410840191594
2025-08-26 19:00:00+00:00,1599.5410840191594
2025-08-27 13:00:00+00:00,1599.5410840191594
2025-08-27 14:00:00+00:00,1599.5410840191594
2025-08-27 15:00:00+00:00,1599.5410840191594
2025-08-27 16:00:00+00:00,1599.5410840191594
2025-08-27 17:00:00+00:00,1599.5410840191594
2025-08-27 18:00:00+00:00,1599.5410840191594
2025-08-27 19:00:00+00:00,1599.5410840191594
2025-08-28 14:00:00+00:00,1599.5410840191594
2025-08-28 18:00:00+00:00,1599.5410840191594
2025-08-28 19:00:00+00:00,1599.5410840191594
2025-08-29 15:00:00+00:00,1599.5410840191594
2025-08-29 16:00:00+00:00,1599.5410840191594
2025-08-29 19:00:00+00:00,1599.5410840191594
2025-09-02 13:00:00+00:00,1599.5410840191594
2025-09-02 14:00:00+00:00,1599.5410840191594
2025-09-02 15:00:00+00:00,1599.5410840191594
2025-09-02 18:00:00+00:00,1599.5410840191594
2025-09-02 19:00:00+00:00,1599.5410840191594
2025-09-03 13:00:00+00:00,1599.5410840191594
2025-09-03 15:00:00+00:00,1599.5410840191594
2025-09-03 16:00:00+00:00,1599.5410840191594
2025-09-03 17:00:00+00:00,1599.5410840191594
2025-09-04 13:00:00+00:00,1599.5410840191594
2025-09-04 14:00:00+00:00,1599.5410840191594
2025-09-04 18:00:00+00:00,1599.5410840191594
2025-09-05 13:00:00+00:00,1599.5410840191594
2025-09-05 14:00:00+00:00,1599.5410840191594
2025-09-05 15:00:00+00:00,1599.5410840191594
2025-09-05 16:00:00+00:00,1599.5410840191594
2025-09-05 17:00:00+00:00,1599.5410840191594
2025-09-05 18:00:00+00:00,1599.5410840191594
2025-09-08 13:00:00+00:00,1599.5410840191594
2025-09-08 14:00:00+00:00,1599.5410840191594
2025-09-08 15:00:00+00:00,1599.5410840191594
2025-09-08 18:00:00+00:00,1599.5410840191594
2025-09-08 19:00:00+00:00,1599.5410840191594
2025-09-09 13:00:00+00:00,1599.5410840191594
2025-09-09 14:00:00+00:00,1599.5410840191594
2025-09-09 15:00:00+00:00,1599.5410840191594
2025-09-09 17:00:00+00:00,1599.5410840191594
2025-09-09 18:00:00+00:00,1599.5410840191594
2025-09-09 19:00:00+00:00,1599.5410840191594
2025-09-10 13:00:00+00:00,1599.5410840191594
2025-09-10 14:00:00+00:00,1599.5410840191594
2025-09-10 15:00:00+00:00,1599.5410840191594
2025-09-10 17:00:00+00:00,1599.5410840191594
2025-09-11 13:00:00+00:00,1599.5410840191594
2025-09-11 14:00:00+00:00,1599.5410840191594
2025-09-11 18:00:00+00:00,1599.5410840191594
2025-09-11 19:00:00+00:00,1599.5410840191594
2025-09-12 13:00:00+00:00,1599.5410840191594
2025-09-12 14:00:00+00:00,1599.5410840191594
2025-09-12 15:00:00+00:00,1599.5410840191594
2025-09-12 16:00:00+00:00,1599.5410840191594
2025-09-12 17:00:00+00:00,1599.5410840191594
2025-09-12 18:00:00+00:00,1599.5410840191594
2025-09-12 19:00:00+00:00,1599.5410840191594
2025-09-15 13:00:00+00:00,1599.5410840191594
2025-09-15 14:00:00+00:00,1599.5410840191594
2025-09-15 17:00:00+00:00,1599.5410840191594
2025-09-15 18:00:00+00:00,1599.5410840191594
2025-09-15 19:00:00+00:00,1599.5410840191594
2025-09-16 13:00:00+00:00,1599.5410840191594
2025-09-16 18:00:00+00:00,1599.5410840191594
2025-09-17 13:00:00+00:00,1599.5410840191594
2025-09-17 16:00:00+00:00,1599.5410840191594
2025-09-17 17:00:00+00:00,1599.5410840191594
2025-09-17 18:00:00+00:00,1599.5410840191594
2025-09-17 19:00:00+00:00,1599.5410840191594
2025-09-18 13:00:00+00:00,1599.5410840191594
2025-09-18 14:00:00+00:00,1599.5410840191594
2025-09-18 16:00:00+00:00,1599.5410840191594
2025-09-18 18:00:00+00:00,1599.5410840191594
2025-09-19 13:00:00+00:00,1599.5410840191594
2025-09-19 15:00:00+00:00,1599.5410840191594
2025-09-19 17:00:00+00:00,1599.5410840191594
2025-09-19 19:00:00+00:00,1599.5410840191594
2025-09-22 13:00:00+00:00,1599.5410840191594
2025-09-22 14:00:00+00:00,1599.5410840191594
2025-09-22 15:00:00+00:00,1599.5410840191594
2025-09-22 18:00:00+00:00,1599.5410840191594
2025-09-22 19:00:00+00:00,1599.5410840191594
2025-09-23 13:00:00+00:00,1599.5410840191594
2025-09-23 14:00:00+00:00,1599.5410840191594
2025-09-23 15:00:00+00:00,1599.5410840191594
2025-09-23 19:00:00+00:00,1599.5410840191594
2025-09-24 15:00:00+00:00,1599.5410840191594
2025-09-24 17:00:00+00:00,1599.5410840191594
2025-09-24 18:00:00+00:00,1599.5410840191594
2025-09-24 19:00:00+00:00,1599.5410840191594
2025-09-25 13:00:00+00:00,1599.5410840191594
2025-09-25 15:00:00+00:00,1599.5410840191594
2025-09-25 17:00:00+00:00,1599.5410840191594
2025-09-25 18:00:00+00:00,1599.5410840191594
2025-09-26 13:00:00+00:00,1599.5410840191594
2025-09-26 14:00:00+00:00,1599.5410840191594
2025-09-26 17:00:00+00:00,1599.5410840191594
2025-09-26 18:00:00+00:00,1599.5410840191594
2025-09-26 19:00:00+00:00,1599.5410840191594
2025-09-29 13:00:00+00:00,1599.5410840191594
2025-09-29 14:00:00+00:00,1599.5410840191594
2025-09-29 16:00:00+00:00,1599.5410840191594
2025-09-29 17:00:00+00:00,1599.5410840191594
2025-09-29 18:00:00+00:00,1599.5410840191594
2025-09-29 19:00:00+00:00,1599.5410840191594
2025-09-30 13:00:00+00:00,1599.5410840191594
2025-09-30 14:00:00+00:00,1599.5410840191594
2025-09-30 15:00:00+00:00,1599.5410840191594
2025-09-30 16:00:00+00:00,1599.5410840191594
2025-09-30 18:00:00+00:00,1599.5410840191594
2025-09-30 19:00:00+00:00,1599.5410840191594
2025-10-01 13:00:00+00:00,1599.5410840191594
2025-10-01 14:00:00+00:00,1599.5410840191594
2025-10-01 16:00:00+00:00,1599.5410840191594
2025-10-01 19:00:00+00:00,1599.5410840191594
2025-10-02 13:00:00+00:00,1599.5410840191594
2025-10-02 14:00:00+00:00,1599.5410840191594
2025-10-02 15:00:00+00:00,1599.5410840191594
2025-10-02 16:00:00+00:00,1599.5410840191594
2025-10-02 17:00:00+00:00,1599.5410840191594
2025-10-02 18:00:00+00:00,1599.5410840191594
2025-10-02 19:00:00+00:00,1599.5410840191594
2025-10-03 13:00:00+00:00,1599.5410840191594
2025-10-03 14:00:00+00:00,1599.5410840191594
2025-10-03 15:00:00+00:00,1599.5410840191594
2025-10-03 16:00:00+00:00,1599.5410840191594
2025-10-03 17:00:00+00:00,1599.5410840191594
2025-10-03 19:00:00+00:00,1599.5410840191594
2025-10-06 13:00:00+00:00,1599.5410840191594
2025-10-06 14:00:00+00:00,1599.5410840191594
2025-10-06 15:00:00+00:00,1599.5410840191594
2025-10-06 16:00:00+00:00,1599.5410840191594
2025-10-06 17:00:00+00:00,1599.5410840191594
2025-10-06 18:00:00+00:00,1599.5410840191594
2025-10-06 19:00:00+00:00,1599.5410840191594
2025-10-07 13:00:00+00:00,1599.5410840191594
2025-10-07 14:00:00+00:00,1599.5410840191594
2025-10-07 15:00:00+00:00,1599.5410840191594
2025-10-07 16:00:00+00:00,1599.5410840191594
2025-10-07 17:00:00+00:00,1599.5410840191594
2025-10-07 18:00:00+00:00,1599.5410840191594
2025-10-07 19:00:00+00:00,1599.5410840191594
2025-10-08 13:00:00+00:00,1599.5410840191594
2025-10-08 14:00:00+00:00,1599.5410840191594
2025-10-08 15:00:00+00:00,1599.5410840191594
2025-10-08 18:00:00+00:00,1599.5410840191594
2025-10-08 19:00:00+00:00,1599.5410840191594
2025-10-09 13:00:00+00:00,1599.5410840191594
2025-10-09 14:00:00+00:00,1599.5410840191594
2025-10-09 15:00:00+00:00,1599.5410840191594
2025-10-09 18:00:00+00:00,1599.5410840191594
2025-10-10 13:00:00+00:00,1599.5410840191594
2025-10-10 14:00:00+00:00,1599.5410840191594
2025-10-10 15:00:00+00:00,1599.5410840191594
2025-10-10 16:00:00+00:00,1599.5410840191594
2025-10-10 18:00:00+00:00,1599.5410840191594
2025-10-13 13:00:00+00:00,1599.5410840191594
2025-10-13 14:00:00+00:00,1599.5410840191594
2025-10-13 15:00:00+00:00,1599.5410840191594
2025-10-13 16:00:00+00:00,1599.5410840191594
2025-10-13 18:00:00+00:00,1599.5410840191594
2025-10-13 19:00:00+00:00,1599.5410840191594
2025-10-14 13:00:00+00:00,1599.5410840191594
2025-10-14 14:00:00+00:00,1599.5410840191594
2025-10-14 16:00:00+00:00,1599.5410840191594
2025-10-14 17:00:00+00:00,1599.5410840191594
2025-10-14 18:00:00+00:00,1599.5410840191594
2025-10-14 19:00:00+00:00,1599.5410840191594
2025-10-15 13:00:00+00:00,1599.5410840191594
2025-10-15 14:00:00+00:00,1599.5410840191594
2025-10-15 15:00:00+00:00,1599.5410840191594
2025-10-15 18:00:00+00:00,1599.5410840191594
2025-10-15 19:00:00+00:00,1599.5410840191594
2025-10-16 13:00:00+00:00,1599.5410840191594
2025-10-16 14:00:00+00:00,1599.5410840191594
2025-10-16 15:00:00+00:00,1599.5410840191594
2025-10-16 16:00:00+00:00,1599.5410840191594
2025-10-16 17:00:00+00:00,1599.5410840191594
2025-10-16 18:00:00+00:00,1599.5410840191594
2025-10-16 19:00:00+00:00,1599.5410840191594
2025-10-17 13:00:00+00:00,1599.5410840191594
2025-10-17 14:00:00+00:00,1599.5410840191594
2025-10-17 15:00:00+00:00,1599.5410840191594
2025-10-17 17:00:00+00:00,1599.5410840191594
2025-10-17 18:00:00+00:00,1599.5410840191594
2025-10-20 13:00:00+00:00,1599.5410840191594
2025-10-20 14:00:00+00:00,1599.5410840191594
2025-10-20 17:00:00+00:00,1599.5410840191594
2025-10-20 18:00:00+00:00,1599.5410840191594
2025-10-21 13:00:00+00:00,1599.5410840191594
2025-10-21 14:00:00+00:00,1599.5410840191594
2025-10-21 16:00:00+00:00,1599.5410840191594
2025-10-21 17:00:00+00:00,1599.5410840191594
2025-10-21 18:00:00+00:00,1599.5410840191594
2025-10-21 19:00:00+00:00,1599.5410840191594
2025-10-22 13:00:00+00:00,1599.5410840191594
2025-10-22 14:00:00+00:00,1599.5410840191594
2025-10-22 16:00:00+00:00,1599.5410840191594
2025-10-22 17:00:00+00:00,1599.5410840191594
2025-10-22 18:00:00+00:00,1599.5410840191594
2025-10-22 19:00:00+00:00,1599.5410840191594
