Date,0
2024-01-02 14:00:00+00:00,0.0
2024-01-02 15:00:00+00:00,0.0
2024-01-02 16:00:00+00:00,0.0
2024-01-02 17:00:00+00:00,0.0
2024-01-02 18:00:00+00:00,0.0
2024-01-02 19:00:00+00:00,0.0
2024-01-02 20:00:00+00:00,0.0
2024-01-03 14:00:00+00:00,0.0
2024-01-03 15:00:00+00:00,0.0
2024-01-03 16:00:00+00:00,0.0
2024-01-03 17:00:00+00:00,0.0
2024-01-03 18:00:00+00:00,0.0
2024-01-03 19:00:00+00:00,0.0
2024-01-03 20:00:00+00:00,0.0
2024-01-04 14:00:00+00:00,0.0
2024-01-04 15:00:00+00:00,0.0
2024-01-04 16:00:00+00:00,0.0
2024-01-04 17:00:00+00:00,0.0
2024-01-04 18:00:00+00:00,0.0
2024-01-04 19:00:00+00:00,0.0
2024-01-04 20:00:00+00:00,0.0
2024-01-05 14:00:00+00:00,0.0
2024-01-05 15:00:00+00:00,0.0
2024-01-05 16:00:00+00:00,0.0
2024-01-05 17:00:00+00:00,0.0
2024-01-05 18:00:00+00:00,0.0
2024-01-05 19:00:00+00:00,0.0
2024-01-05 20:00:00+00:00,0.0
2024-01-08 14:00:00+00:00,0.0
2024-01-08 15:00:00+00:00,0.0
2024-01-08 16:00:00+00:00,0.0
2024-01-08 17:00:00+00:00,0.0
2024-01-08 18:00:00+00:00,0.0
2024-01-08 19:00:00+00:00,0.0
2024-01-08 20:00:00+00:00,0.0
2024-01-09 14:00:00+00:00,0.0
2024-01-09 15:00:00+00:00,0.0
2024-01-09 16:00:00+00:00,0.0
2024-01-09 17:00:00+00:00,0.0
2024-01-09 18:00:00+00:00,0.0
2024-01-09 19:00:00+00:00,0.0
2024-01-09 20:00:00+00:00,0.0
2024-01-10 14:00:00+00:00,0.0
2024-01-10 15:00:00+00:00,0.0
2024-01-10 16:00:00+00:00,0.0
2024-01-10 17:00:00+00:00,0.0
2024-01-10 18:00:00+00:00,0.0
2024-01-10 19:00:00+00:00,0.0
2024-01-10 20:00:00+00:00,0.0
2024-01-11 14:00:00+00:00,0.0
2024-01-11 15:00:00+00:00,0.0
2024-01-11 16:00:00+00:00,0.0
2024-01-11 17:00:00+00:00,0.0
2024-01-11 18:00:00+00:00,0.0
2024-01-11 19:00:00+00:00,0.0
2024-01-11 20:00:00+00:00,0.0
2024-01-12 14:00:00+00:00,0.0
2024-01-12 15:00:00+00:00,0.0
2024-01-12 16:00:00+00:00,0.0
2024-01-12 17:00:00+00:00,0.0
2024-01-12 18:00:00+00:00,0.0
2024-01-12 19:00:00+00:00,0.0
2024-01-12 20:00:00+00:00,0.0
2024-01-16 14:00:00+00:00,0.0
2024-01-16 15:00:00+00:00,0.0
2024-01-16 16:00:00+00:00,0.0
2024-01-16 17:00:00+00:00,0.0
2024-01-16 18:00:00+00:00,0.0
2024-01-16 19:00:00+00:00,0.0
2024-01-16 20:00:00+00:00,0.0
2024-01-17 14:00:00+00:00,0.0
2024-01-17 15:00:00+00:00,0.0
2024-01-17 16:00:00+00:00,0.0
2024-01-17 17:00:00+00:00,0.0
2024-01-17 18:00:00+00:00,0.0
2024-01-17 19:00:00+00:00,0.0
2024-01-17 20:00:00+00:00,0.0
2024-01-18 14:00:00+00:00,0.0
2024-01-18 15:00:00+00:00,0.0
2024-01-18 16:00:00+00:00,0.0
2024-01-18 17:00:00+00:00,0.0
2024-01-18 18:00:00+00:00,0.0
2024-01-18 19:00:00+00:00,0.0
2024-01-18 20:00:00+00:00,0.0
2024-01-19 14:00:00+00:00,0.0
2024-01-19 15:00:00+00:00,0.0
2024-01-19 16:00:00+00:00,0.0
2024-01-19 17:00:00+00:00,0.0
2024-01-19 18:00:00+00:00,0.0
2024-01-19 19:00:00+00:00,0.0
2024-01-19 20:00:00+00:00,0.0
2024-01-22 14:00:00+00:00,0.0
2024-01-22 15:00:00+00:00,0.0
2024-01-22 16:00:00+00:00,0.0
2024-01-22 17:00:00+00:00,0.0
2024-01-22 18:00:00+00:00,0.0
2024-01-22 19:00:00+00:00,0.0
2024-01-22 20:00:00+00:00,0.0
2024-01-23 14:00:00+00:00,0.0
2024-01-23 15:00:00+00:00,0.0
2024-01-23 16:00:00+00:00,0.0
2024-01-23 17:00:00+00:00,0.0
2024-01-23 18:00:00+00:00,0.0
2024-01-23 19:00:00+00:00,0.0
2024-01-23 20:00:00+00:00,0.0
2024-01-24 14:00:00+00:00,0.0
2024-01-24 15:00:00+00:00,0.0
2024-01-24 16:00:00+00:00,0.0
2024-01-24 17:00:00+00:00,0.0
2024-01-24 18:00:00+00:00,0.0
2024-01-24 19:00:00+00:00,0.0
2024-01-24 20:00:00+00:00,0.0
2024-01-25 14:00:00+00:00,0.0
2024-01-25 15:00:00+00:00,0.0
2024-01-25 16:00:00+00:00,0.0
2024-01-25 17:00:00+00:00,0.0
2024-01-25 18:00:00+00:00,0.0
2024-01-25 19:00:00+00:00,0.0
2024-01-25 20:00:00+00:00,0.0
2024-01-26 14:00:00+00:00,0.0
2024-01-26 15:00:00+00:00,0.0
2024-01-26 16:00:00+00:00,0.0
2024-01-26 17:00:00+00:00,0.0
2024-01-26 18:00:00+00:00,0.0
2024-01-26 19:00:00+00:00,0.0
2024-01-26 20:00:00+00:00,0.0
2024-01-29 14:00:00+00:00,0.0
2024-01-29 15:00:00+00:00,0.0
2024-01-29 16:00:00+00:00,0.0
2024-01-29 17:00:00+00:00,0.0
2024-01-29 18:00:00+00:00,0.0
2024-01-29 19:00:00+00:00,0.0
2024-01-29 20:00:00+00:00,0.0
2024-01-30 14:00:00+00:00,0.0
2024-01-30 15:00:00+00:00,0.0
2024-01-30 16:00:00+00:00,0.0
2024-01-30 17:00:00+00:00,0.0
2024-01-30 18:00:00+00:00,0.0
2024-01-30 19:00:00+00:00,0.0
2024-01-30 20:00:00+00:00,0.0
2024-01-31 14:00:00+00:00,0.0
2024-01-31 15:00:00+00:00,0.0
2024-01-31 16:00:00+00:00,0.0
2024-01-31 17:00:00+00:00,0.0
2024-01-31 18:00:00+00:00,0.0
2024-01-31 19:00:00+00:00,0.0
2024-01-31 20:00:00+00:00,0.0
2024-02-01 14:00:00+00:00,0.0
2024-02-01 15:00:00+00:00,0.0
2024-02-01 16:00:00+00:00,0.0
2024-02-01 17:00:00+00:00,0.0
2024-02-01 18:00:00+00:00,0.0
2024-02-01 19:00:00+00:00,0.0
2024-02-01 20:00:00+00:00,0.0
2024-02-02 14:00:00+00:00,0.0
2024-02-02 15:00:00+00:00,0.0
2024-02-02 16:00:00+00:00,0.0
2024-02-02 17:00:00+00:00,0.0
2024-02-02 18:00:00+00:00,0.0
2024-02-02 19:00:00+00:00,0.0
2024-02-02 20:00:00+00:00,0.0
2024-02-05 14:00:00+00:00,0.0
2024-02-05 15:00:00+00:00,0.0
2024-02-05 16:00:00+00:00,0.0
2024-02-05 17:00:00+00:00,0.0
2024-02-05 18:00:00+00:00,0.0
2024-02-05 19:00:00+00:00,0.0
2024-02-05 20:00:00+00:00,0.0
2024-02-06 14:00:00+00:00,0.0
2024-02-06 15:00:00+00:00,0.0
2024-02-06 16:00:00+00:00,0.0
2024-02-06 17:00:00+00:00,0.0
2024-02-06 18:00:00+00:00,0.0
2024-02-06 19:00:00+00:00,0.0
2024-02-06 20:00:00+00:00,0.0
2024-02-07 14:00:00+00:00,0.0
2024-02-07 15:00:00+00:00,0.0
2024-02-07 16:00:00+00:00,0.0
2024-02-07 17:00:00+00:00,0.0
2024-02-07 18:00:00+00:00,0.0
2024-02-07 19:00:00+00:00,0.0
2024-02-07 20:00:00+00:00,0.0
2024-02-08 14:00:00+00:00,0.0
2024-02-08 15:00:00+00:00,0.0
2024-02-08 16:00:00+00:00,0.0
2024-02-08 17:00:00+00:00,0.0
2024-02-08 18:00:00+00:00,0.0
2024-02-08 19:00:00+00:00,0.0
2024-02-08 20:00:00+00:00,0.0
2024-02-09 14:00:00+00:00,0.0
2024-02-09 15:00:00+00:00,0.0
2024-02-09 16:00:00+00:00,0.0
2024-02-09 17:00:00+00:00,0.0
2024-02-09 18:00:00+00:00,0.0
2024-02-09 19:00:00+00:00,0.0
2024-02-09 20:00:00+00:00,0.0
2024-02-12 14:00:00+00:00,0.0
2024-02-12 15:00:00+00:00,0.0
2024-02-12 16:00:00+00:00,0.0
2024-02-12 17:00:00+00:00,0.0
2024-02-12 18:00:00+00:00,0.0
2024-02-12 19:00:00+00:00,0.0
2024-02-12 20:00:00+00:00,0.0
2024-02-13 14:00:00+00:00,0.0
2024-02-13 15:00:00+00:00,0.0
2024-02-13 16:00:00+00:00,0.0
2024-02-13 17:00:00+00:00,0.0
2024-02-13 18:00:00+00:00,0.0
2024-02-13 19:00:00+00:00,0.0
2024-02-13 20:00:00+00:00,0.0
2024-02-14 14:00:00+00:00,0.0
2024-02-14 15:00:00+00:00,0.0
2024-02-14 16:00:00+00:00,0.0
2024-02-14 17:00:00+00:00,0.0
2024-02-14 18:00:00+00:00,0.0
2024-02-14 19:00:00+00:00,0.0
2024-02-14 20:00:00+00:00,0.0
2024-02-15 14:00:00+00:00,0.0
2024-02-15 15:00:00+00:00,0.0
2024-02-15 16:00:00+00:00,0.0
2024-02-15 17:00:00+00:00,0.0
2024-02-15 18:00:00+00:00,0.0
2024-02-15 19:00:00+00:00,0.0
2024-02-15 20:00:00+00:00,0.0
2024-02-16 14:00:00+00:00,0.0
2024-02-16 15:00:00+00:00,0.0
2024-02-16 16:00:00+00:00,0.0
2024-02-16 17:00:00+00:00,0.0
2024-02-16 18:00:00+00:00,0.0
2024-02-16 19:00:00+00:00,0.0
2024-02-16 20:00:00+00:00,0.0
2024-02-20 14:00:00+00:00,0.0
2024-02-20 15:00:00+00:00,0.0
2024-02-20 16:00:00+00:00,0.0
2024-02-20 17:00:00+00:00,0.0
2024-02-20 18:00:00+00:00,0.0
2024-02-20 19:00:00+00:00,0.0
2024-02-20 20:00:00+00:00,0.0
2024-02-21 14:00:00+00:00,0.0
2024-02-21 15:00:00+00:00,0.0
2024-02-21 16:00:00+00:00,0.0
2024-02-21 17:00:00+00:00,0.0
2024-02-21 18:00:00+00:00,0.0
2024-02-21 19:00:00+00:00,0.0
2024-02-21 20:00:00+00:00,0.0
2024-02-22 14:00:00+00:00,0.0
2024-02-22 15:00:00+00:00,0.0
2024-02-22 16:00:00+00:00,0.0
2024-02-22 17:00:00+00:00,0.0
2024-02-22 18:00:00+00:00,0.0
2024-02-22 19:00:00+00:00,0.0
2024-02-22 20:00:00+00:00,0.0
2024-02-23 14:00:00+00:00,0.0
2024-02-23 15:00:00+00:00,0.0
2024-02-23 16:00:00+00:00,0.0
2024-02-23 17:00:00+00:00,0.0
2024-02-23 18:00:00+00:00,0.0
2024-02-23 19:00:00+00:00,0.0
2024-02-23 20:00:00+00:00,0.0
2024-02-26 14:00:00+00:00,0.0
2024-02-26 15:00:00+00:00,0.0
2024-02-26 16:00:00+00:00,0.0
2024-02-26 17:00:00+00:00,0.0
2024-02-26 18:00:00+00:00,0.0
2024-02-26 19:00:00+00:00,0.0
2024-02-26 20:00:00+00:00,0.0
2024-02-27 14:00:00+00:00,0.0
2024-02-27 15:00:00+00:00,0.0
2024-02-27 16:00:00+00:00,0.0
2024-02-27 17:00:00+00:00,0.0
2024-02-27 18:00:00+00:00,0.0
2024-02-27 19:00:00+00:00,0.0
2024-02-27 20:00:00+00:00,0.0
2024-02-28 14:00:00+00:00,0.0
2024-02-28 15:00:00+00:00,0.0
2024-02-28 16:00:00+00:00,0.0
2024-02-28 17:00:00+00:00,0.0
2024-02-28 18:00:00+00:00,0.0
2024-02-28 19:00:00+00:00,0.0
2024-02-28 20:00:00+00:00,0.0
2024-02-29 14:00:00+00:00,0.0
2024-02-29 15:00:00+00:00,0.0
2024-02-29 16:00:00+00:00,0.0
2024-02-29 17:00:00+00:00,0.0
2024-02-29 18:00:00+00:00,0.0
2024-02-29 19:00:00+00:00,0.0
2024-02-29 20:00:00+00:00,0.0
2024-03-01 14:00:00+00:00,0.0
2024-03-01 15:00:00+00:00,0.0
2024-03-01 16:00:00+00:00,0.0
2024-03-01 17:00:00+00:00,0.0
2024-03-01 18:00:00+00:00,0.0
2024-03-01 19:00:00+00:00,0.0
2024-03-01 20:00:00+00:00,0.0
2024-03-04 14:00:00+00:00,0.0
2024-03-04 15:00:00+00:00,0.0
2024-03-04 16:00:00+00:00,0.0
2024-03-04 17:00:00+00:00,0.0
2024-03-04 18:00:00+00:00,0.0
2024-03-04 19:00:00+00:00,0.0
2024-03-04 20:00:00+00:00,0.0
2024-03-05 14:00:00+00:00,0.0
2024-03-05 15:00:00+00:00,0.0
2024-03-05 16:00:00+00:00,0.0
2024-03-05 17:00:00+00:00,0.0
2024-03-05 18:00:00+00:00,0.0
2024-03-05 19:00:00+00:00,0.0
2024-03-05 20:00:00+00:00,0.0
2024-03-06 14:00:00+00:00,0.0
2024-03-06 15:00:00+00:00,0.0
2024-03-06 16:00:00+00:00,0.0
2024-03-06 17:00:00+00:00,0.0
2024-03-06 18:00:00+00:00,0.0
2024-03-06 19:00:00+00:00,0.0
2024-03-06 20:00:00+00:00,0.0
2024-03-07 14:00:00+00:00,0.0
2024-03-07 15:00:00+00:00,0.0
2024-03-07 16:00:00+00:00,0.0
2024-03-07 17:00:00+00:00,0.0
2024-03-07 18:00:00+00:00,0.0
2024-03-07 19:00:00+00:00,0.0
2024-03-07 20:00:00+00:00,0.0
2024-03-08 14:00:00+00:00,0.0
2024-03-08 15:00:00+00:00,0.0
2024-03-08 16:00:00+00:00,0.0
2024-03-08 17:00:00+00:00,0.0
2024-03-08 18:00:00+00:00,0.0
2024-03-08 19:00:00+00:00,0.0
2024-03-08 20:00:00+00:00,0.0
2024-03-11 13:00:00+00:00,0.0
2024-03-11 14:00:00+00:00,0.0
2024-03-11 15:00:00+00:00,0.0
2024-03-11 16:00:00+00:00,0.0
2024-03-11 17:00:00+00:00,0.0
2024-03-11 18:00:00+00:00,0.0
2024-03-11 19:00:00+00:00,0.0
2024-03-12 13:00:00+00:00,0.0
2024-03-12 14:00:00+00:00,0.0
2024-03-12 15:00:00+00:00,0.0
2024-03-12 16:00:00+00:00,0.0
2024-03-12 17:00:00+00:00,0.0
2024-03-12 18:00:00+00:00,0.0
2024-03-12 19:00:00+00:00,0.0
2024-03-13 13:00:00+00:00,0.0
2024-03-13 14:00:00+00:00,0.0
2024-03-13 15:00:00+00:00,0.0
2024-03-13 16:00:00+00:00,0.0
2024-03-13 17:00:00+00:00,0.0
2024-03-13 18:00:00+00:00,0.0
2024-03-13 19:00:00+00:00,0.0
2024-03-14 13:00:00+00:00,0.0
2024-03-14 14:00:00+00:00,0.0
2024-03-14 15:00:00+00:00,0.0
2024-03-14 16:00:00+00:00,0.0
2024-03-14 17:00:00+00:00,0.0
2024-03-14 18:00:00+00:00,0.0
2024-03-14 19:00:00+00:00,0.0
2024-03-15 13:00:00+00:00,0.0
2024-03-15 14:00:00+00:00,0.0
2024-03-15 15:00:00+00:00,0.0
2024-03-15 16:00:00+00:00,0.0
2024-03-15 17:00:00+00:00,0.0
2024-03-15 18:00:00+00:00,0.0
2024-03-15 19:00:00+00:00,0.0
2024-03-18 13:00:00+00:00,0.0
2024-03-18 14:00:00+00:00,0.0
2024-03-18 15:00:00+00:00,0.0
2024-03-18 16:00:00+00:00,0.0
2024-03-18 17:00:00+00:00,0.0
2024-03-18 18:00:00+00:00,0.0
2024-03-18 19:00:00+00:00,0.0
2024-03-19 13:00:00+00:00,0.0
2024-03-19 14:00:00+00:00,0.0
2024-03-19 15:00:00+00:00,0.0
2024-03-19 16:00:00+00:00,0.0
2024-03-19 17:00:00+00:00,0.0
2024-03-19 18:00:00+00:00,0.0
2024-03-19 19:00:00+00:00,0.0
2024-03-20 13:00:00+00:00,0.0
2024-03-20 14:00:00+00:00,0.0
2024-03-20 15:00:00+00:00,0.0
2024-03-20 16:00:00+00:00,0.0
2024-03-20 17:00:00+00:00,0.0
2024-03-20 18:00:00+00:00,0.0
2024-03-20 19:00:00+00:00,0.0
2024-03-21 13:00:00+00:00,0.0
2024-03-21 14:00:00+00:00,0.0
2024-03-21 15:00:00+00:00,0.0
2024-03-21 16:00:00+00:00,0.0
2024-03-21 17:00:00+00:00,0.0
2024-03-21 18:00:00+00:00,0.0
2024-03-21 19:00:00+00:00,0.0
2024-03-22 13:00:00+00:00,0.0
2024-03-22 14:00:00+00:00,0.0
2024-03-22 15:00:00+00:00,0.0
2024-03-22 16:00:00+00:00,0.0
2024-03-22 17:00:00+00:00,0.0
2024-03-22 18:00:00+00:00,0.0
2024-03-22 19:00:00+00:00,0.0
2024-03-25 13:00:00+00:00,0.0
2024-03-25 14:00:00+00:00,0.0
2024-03-25 15:00:00+00:00,0.0
2024-03-25 16:00:00+00:00,0.0
2024-03-25 17:00:00+00:00,0.0
2024-03-25 18:00:00+00:00,0.0
2024-03-25 19:00:00+00:00,0.0
2024-03-26 13:00:00+00:00,0.0
2024-03-26 14:00:00+00:00,0.0
2024-03-26 15:00:00+00:00,0.0
2024-03-26 16:00:00+00:00,0.0
2024-03-26 17:00:00+00:00,0.0
2024-03-26 18:00:00+00:00,0.0
2024-03-26 19:00:00+00:00,0.0
2024-03-27 13:00:00+00:00,0.0
2024-03-27 14:00:00+00:00,0.0
2024-03-27 15:00:00+00:00,0.0
2024-03-27 16:00:00+00:00,0.0
2024-03-27 17:00:00+00:00,0.0
2024-03-27 18:00:00+00:00,0.0
2024-03-27 19:00:00+00:00,0.0
2024-03-28 13:00:00+00:00,0.0
2024-03-28 14:00:00+00:00,0.0
2024-03-28 15:00:00+00:00,0.0
2024-03-28 16:00:00+00:00,0.0
2024-03-28 17:00:00+00:00,0.0
2024-03-28 18:00:00+00:00,0.0
2024-03-28 19:00:00+00:00,0.0
2024-04-01 13:00:00+00:00,0.0
2024-04-01 14:00:00+00:00,0.0
2024-04-01 15:00:00+00:00,0.0
2024-04-01 16:00:00+00:00,0.0
2024-04-01 17:00:00+00:00,0.0
2024-04-01 18:00:00+00:00,0.0
2024-04-01 19:00:00+00:00,0.0
2024-04-02 13:00:00+00:00,0.0
2024-04-02 14:00:00+00:00,0.0
2024-04-02 15:00:00+00:00,0.0
2024-04-02 16:00:00+00:00,0.0
2024-04-02 17:00:00+00:00,0.0
2024-04-02 18:00:00+00:00,0.0
2024-04-02 19:00:00+00:00,0.0
2024-04-03 13:00:00+00:00,0.0
2024-04-03 14:00:00+00:00,0.0
2024-04-03 15:00:00+00:00,0.0
2024-04-03 16:00:00+00:00,0.0
2024-04-03 17:00:00+00:00,0.0
2024-04-03 18:00:00+00:00,0.0
2024-04-03 19:00:00+00:00,0.0
2024-04-04 13:00:00+00:00,0.0
2024-04-04 14:00:00+00:00,0.0
2024-04-04 15:00:00+00:00,0.0
2024-04-04 16:00:00+00:00,0.0
2024-04-04 17:00:00+00:00,0.0
2024-04-04 18:00:00+00:00,0.0
2024-04-04 19:00:00+00:00,0.0
2024-04-05 13:00:00+00:00,0.0
2024-04-05 14:00:00+00:00,0.0
2024-04-05 15:00:00+00:00,0.0
2024-04-05 16:00:00+00:00,0.0
2024-04-05 17:00:00+00:00,0.0
2024-04-05 18:00:00+00:00,0.0
2024-04-05 19:00:00+00:00,0.0
2024-04-08 13:00:00+00:00,0.0
2024-04-08 14:00:00+00:00,0.0
2024-04-08 15:00:00+00:00,0.0
2024-04-08 16:00:00+00:00,0.0
2024-04-08 17:00:00+00:00,0.0
2024-04-08 18:00:00+00:00,0.0
2024-04-08 19:00:00+00:00,0.0
2024-04-09 13:00:00+00:00,0.0
2024-04-09 14:00:00+00:00,0.0
2024-04-09 15:00:00+00:00,0.0
2024-04-09 16:00:00+00:00,0.0
2024-04-09 17:00:00+00:00,0.0
2024-04-09 18:00:00+00:00,0.0
2024-04-09 19:00:00+00:00,0.0
2024-04-10 13:00:00+00:00,0.0
2024-04-10 14:00:00+00:00,0.0
2024-04-10 15:00:00+00:00,0.0
2024-04-10 16:00:00+00:00,0.0
2024-04-10 17:00:00+00:00,0.0
2024-04-10 18:00:00+00:00,0.0
2024-04-10 19:00:00+00:00,0.0
2024-04-11 13:00:00+00:00,0.0
2024-04-11 14:00:00+00:00,0.0
2024-04-11 15:00:00+00:00,0.0
2024-04-11 16:00:00+00:00,0.0
2024-04-11 17:00:00+00:00,0.0
2024-04-11 18:00:00+00:00,0.0
2024-04-11 19:00:00+00:00,0.0
2024-04-12 13:00:00+00:00,0.0
2024-04-12 14:00:00+00:00,0.0
2024-04-12 15:00:00+00:00,0.0
2024-04-12 16:00:00+00:00,0.0
2024-04-12 17:00:00+00:00,0.0
2024-04-12 18:00:00+00:00,0.0
2024-04-12 19:00:00+00:00,0.0
2024-04-15 13:00:00+00:00,0.0
2024-04-15 14:00:00+00:00,0.0
2024-04-15 15:00:00+00:00,0.0
2024-04-15 16:00:00+00:00,0.0
2024-04-15 17:00:00+00:00,0.0
2024-04-15 18:00:00+00:00,0.0
2024-04-15 19:00:00+00:00,0.0
2024-04-16 13:00:00+00:00,0.0
2024-04-16 14:00:00+00:00,0.0
2024-04-16 15:00:00+00:00,0.0
2024-04-16 16:00:00+00:00,0.0
2024-04-16 17:00:00+00:00,0.0
2024-04-16 18:00:00+00:00,0.0
2024-04-16 19:00:00+00:00,0.0
2024-04-17 13:00:00+00:00,0.0
2024-04-17 14:00:00+00:00,0.0
2024-04-17 15:00:00+00:00,0.0
2024-04-17 16:00:00+00:00,0.0
2024-04-17 17:00:00+00:00,0.0
2024-04-17 18:00:00+00:00,0.0
2024-04-17 19:00:00+00:00,0.0
2024-04-18 13:00:00+00:00,0.0
2024-04-18 14:00:00+00:00,0.0
2024-04-18 15:00:00+00:00,0.0
2024-04-18 16:00:00+00:00,0.0
2024-04-18 17:00:00+00:00,0.0
2024-04-18 18:00:00+00:00,0.0
2024-04-18 19:00:00+00:00,0.0
2024-04-19 13:00:00+00:00,0.0
2024-04-19 14:00:00+00:00,0.0
2024-04-19 15:00:00+00:00,0.0
2024-04-19 16:00:00+00:00,0.0
2024-04-19 17:00:00+00:00,0.0
2024-04-19 18:00:00+00:00,0.0
2024-04-19 19:00:00+00:00,0.0
2024-04-22 13:00:00+00:00,0.0
2024-04-22 14:00:00+00:00,0.0
2024-04-22 15:00:00+00:00,0.0
2024-04-22 16:00:00+00:00,0.0
2024-04-22 17:00:00+00:00,0.0
2024-04-22 18:00:00+00:00,0.0
2024-04-22 19:00:00+00:00,0.0
2024-04-23 13:00:00+00:00,0.0
2024-04-23 14:00:00+00:00,0.0
2024-04-23 15:00:00+00:00,0.0
2024-04-23 16:00:00+00:00,0.0
2024-04-23 17:00:00+00:00,0.0
2024-04-23 18:00:00+00:00,0.0
2024-04-23 19:00:00+00:00,0.0
2024-04-24 13:00:00+00:00,0.0
2024-04-24 14:00:00+00:00,0.0
2024-04-24 15:00:00+00:00,0.0
2024-04-24 16:00:00+00:00,0.0
2024-04-24 17:00:00+00:00,0.0
2024-04-24 18:00:00+00:00,0.0
2024-04-24 19:00:00+00:00,0.0
2024-04-25 13:00:00+00:00,0.0
2024-04-25 14:00:00+00:00,0.0
2024-04-25 15:00:00+00:00,0.0
2024-04-25 16:00:00+00:00,0.0
2024-04-25 17:00:00+00:00,0.0
2024-04-25 18:00:00+00:00,0.0
2024-04-25 19:00:00+00:00,0.0
2024-04-26 13:00:00+00:00,0.0
2024-04-26 14:00:00+00:00,0.0
2024-04-26 15:00:00+00:00,0.0
2024-04-26 16:00:00+00:00,0.0
2024-04-26 17:00:00+00:00,0.0
2024-04-26 18:00:00+00:00,0.0
2024-04-26 19:00:00+00:00,0.0
2024-04-29 13:00:00+00:00,0.0
2024-04-29 14:00:00+00:00,0.0
2024-04-29 15:00:00+00:00,0.0
2024-04-29 16:00:00+00:00,0.0
2024-04-29 17:00:00+00:00,0.0
2024-04-29 18:00:00+00:00,0.0
2024-04-29 19:00:00+00:00,0.0
2024-04-30 13:00:00+00:00,0.0
2024-04-30 14:00:00+00:00,0.0
2024-04-30 15:00:00+00:00,0.0
2024-04-30 16:00:00+00:00,0.0
2024-04-30 17:00:00+00:00,0.0
2024-04-30 18:00:00+00:00,0.0
2024-04-30 19:00:00+00:00,0.0
2024-05-01 13:00:00+00:00,0.0
2024-05-01 14:00:00+00:00,0.0
2024-05-01 15:00:00+00:00,0.0
2024-05-01 16:00:00+00:00,0.0
2024-05-01 17:00:00+00:00,0.0
2024-05-01 18:00:00+00:00,0.0
2024-05-01 19:00:00+00:00,0.0
2024-05-02 13:00:00+00:00,0.0
2024-05-02 14:00:00+00:00,0.0
2024-05-02 15:00:00+00:00,0.0
2024-05-02 16:00:00+00:00,0.0
2024-05-02 17:00:00+00:00,0.0
2024-05-02 18:00:00+00:00,0.0
2024-05-02 19:00:00+00:00,0.0
2024-05-03 13:00:00+00:00,0.0
2024-05-03 14:00:00+00:00,0.0
2024-05-03 15:00:00+00:00,0.0
2024-05-03 16:00:00+00:00,0.0
2024-05-03 17:00:00+00:00,0.0
2024-05-03 18:00:00+00:00,0.0
2024-05-03 19:00:00+00:00,0.0
2024-05-06 13:00:00+00:00,0.0
2024-05-06 14:00:00+00:00,0.0
2024-05-06 15:00:00+00:00,0.0
2024-05-06 16:00:00+00:00,0.0
2024-05-06 17:00:00+00:00,0.0
2024-05-06 18:00:00+00:00,0.0
2024-05-06 19:00:00+00:00,0.0
2024-05-07 13:00:00+00:00,0.0
2024-05-07 14:00:00+00:00,0.0
2024-05-07 15:00:00+00:00,0.0
2024-05-07 16:00:00+00:00,0.0
2024-05-07 17:00:00+00:00,0.0
2024-05-07 18:00:00+00:00,0.0
2024-05-07 19:00:00+00:00,0.0
2024-05-08 13:00:00+00:00,0.0
2024-05-08 14:00:00+00:00,0.0
2024-05-08 15:00:00+00:00,0.0
2024-05-08 16:00:00+00:00,0.0
2024-05-08 17:00:00+00:00,0.0
2024-05-08 18:00:00+00:00,0.0
2024-05-08 19:00:00+00:00,0.0
2024-05-09 13:00:00+00:00,0.0
2024-05-09 14:00:00+00:00,0.0
2024-05-09 15:00:00+00:00,0.0
2024-05-09 16:00:00+00:00,0.0
2024-05-09 17:00:00+00:00,0.0
2024-05-09 18:00:00+00:00,0.0
2024-05-09 19:00:00+00:00,0.0
2024-05-10 13:00:00+00:00,0.0
2024-05-10 14:00:00+00:00,0.0
2024-05-10 15:00:00+00:00,0.0
2024-05-10 16:00:00+00:00,0.0
2024-05-10 17:00:00+00:00,0.0
2024-05-10 18:00:00+00:00,0.0
2024-05-10 19:00:00+00:00,0.0
2024-05-13 13:00:00+00:00,0.0
2024-05-13 14:00:00+00:00,0.0
2024-05-13 15:00:00+00:00,0.0
2024-05-13 16:00:00+00:00,0.0
2024-05-13 17:00:00+00:00,0.0
2024-05-13 18:00:00+00:00,0.0
2024-05-13 19:00:00+00:00,0.0
2024-05-14 13:00:00+00:00,0.0
2024-05-14 14:00:00+00:00,0.0
2024-05-14 15:00:00+00:00,0.0
2024-05-14 16:00:00+00:00,0.0
2024-05-14 17:00:00+00:00,0.0
2024-05-14 18:00:00+00:00,0.0
2024-05-14 19:00:00+00:00,0.0
2024-05-15 13:00:00+00:00,0.0
2024-05-15 14:00:00+00:00,0.0
2024-05-15 15:00:00+00:00,0.0
2024-05-15 16:00:00+00:00,0.0
2024-05-15 17:00:00+00:00,0.0
2024-05-15 18:00:00+00:00,0.0
2024-05-15 19:00:00+00:00,0.0
2024-05-16 13:00:00+00:00,0.0
2024-05-16 14:00:00+00:00,0.0
2024-05-16 15:00:00+00:00,0.0
2024-05-16 16:00:00+00:00,0.0
2024-05-16 17:00:00+00:00,0.0
2024-05-16 18:00:00+00:00,0.0
2024-05-16 19:00:00+00:00,0.0
2024-05-17 13:00:00+00:00,0.0
2024-05-17 14:00:00+00:00,0.0
2024-05-17 15:00:00+00:00,0.0
2024-05-17 16:00:00+00:00,0.0
2024-05-17 17:00:00+00:00,0.0
2024-05-17 18:00:00+00:00,0.0
2024-05-17 19:00:00+00:00,0.0
2024-05-20 13:00:00+00:00,0.0
2024-05-20 14:00:00+00:00,0.0
2024-05-20 15:00:00+00:00,0.0
2024-05-20 16:00:00+00:00,0.0
2024-05-20 17:00:00+00:00,0.0
2024-05-20 18:00:00+00:00,0.0
2024-05-20 19:00:00+00:00,0.0
2024-05-21 13:00:00+00:00,0.0
2024-05-21 14:00:00+00:00,0.0
2024-05-21 15:00:00+00:00,0.0
2024-05-21 16:00:00+00:00,0.0
2024-05-21 17:00:00+00:00,0.0
2024-05-21 18:00:00+00:00,0.0
2024-05-21 19:00:00+00:00,0.0
2024-05-22 13:00:00+00:00,0.0
2024-05-22 14:00:00+00:00,0.0
2024-05-22 15:00:00+00:00,0.0
2024-05-22 16:00:00+00:00,0.0
2024-05-22 17:00:00+00:00,0.0
2024-05-22 18:00:00+00:00,0.0
2024-05-22 19:00:00+00:00,0.0
2024-05-23 13:00:00+00:00,0.0
2024-05-23 14:00:00+00:00,0.0
2024-05-23 15:00:00+00:00,0.0
2024-05-23 16:00:00+00:00,0.0
2024-05-23 17:00:00+00:00,0.0
2024-05-23 18:00:00+00:00,0.0
2024-05-23 19:00:00+00:00,0.0
2024-05-24 13:00:00+00:00,0.0
2024-05-24 14:00:00+00:00,0.0
2024-05-24 15:00:00+00:00,0.0
2024-05-24 16:00:00+00:00,0.0
2024-05-24 17:00:00+00:00,0.0
2024-05-24 18:00:00+00:00,0.0
2024-05-24 19:00:00+00:00,0.0
2024-05-28 13:00:00+00:00,0.0
2024-05-28 14:00:00+00:00,0.0
2024-05-28 15:00:00+00:00,0.0
2024-05-28 16:00:00+00:00,0.0
2024-05-28 17:00:00+00:00,0.0
2024-05-28 18:00:00+00:00,0.0
2024-05-28 19:00:00+00:00,0.0
2024-05-29 13:00:00+00:00,0.0
2024-05-29 14:00:00+00:00,0.0
2024-05-29 15:00:00+00:00,0.0
2024-05-29 16:00:00+00:00,0.0
2024-05-29 17:00:00+00:00,0.0
2024-05-29 18:00:00+00:00,0.0
2024-05-29 19:00:00+00:00,0.0
2024-05-30 13:00:00+00:00,0.0
2024-05-30 14:00:00+00:00,0.0
2024-05-30 15:00:00+00:00,0.0
2024-05-30 16:00:00+00:00,0.0
2024-05-30 17:00:00+00:00,0.0
2024-05-30 18:00:00+00:00,0.0
2024-05-30 19:00:00+00:00,0.0
2024-05-31 13:00:00+00:00,0.0
2024-05-31 14:00:00+00:00,0.0
2024-05-31 15:00:00+00:00,0.0
2024-05-31 16:00:00+00:00,0.0
2024-05-31 17:00:00+00:00,0.0
2024-05-31 18:00:00+00:00,0.0
2024-05-31 19:00:00+00:00,0.0
2024-06-03 13:00:00+00:00,0.0
2024-06-03 14:00:00+00:00,0.0
2024-06-03 15:00:00+00:00,0.0
2024-06-03 16:00:00+00:00,0.0
2024-06-03 17:00:00+00:00,0.0
2024-06-03 18:00:00+00:00,0.0
2024-06-03 19:00:00+00:00,0.0
2024-06-04 13:00:00+00:00,0.0
2024-06-04 14:00:00+00:00,0.0
2024-06-04 15:00:00+00:00,0.0
2024-06-04 16:00:00+00:00,0.0
2024-06-04 17:00:00+00:00,0.0
2024-06-04 18:00:00+00:00,0.0
2024-06-04 19:00:00+00:00,0.0
2024-06-05 13:00:00+00:00,0.0
2024-06-05 14:00:00+00:00,0.0
2024-06-05 15:00:00+00:00,0.0
2024-06-05 16:00:00+00:00,0.0
2024-06-05 17:00:00+00:00,0.0
2024-06-05 18:00:00+00:00,0.0
2024-06-05 19:00:00+00:00,0.0
2024-06-06 13:00:00+00:00,0.0
2024-06-06 14:00:00+00:00,0.0
2024-06-06 15:00:00+00:00,0.0
2024-06-06 16:00:00+00:00,0.0
2024-06-06 17:00:00+00:00,0.0
2024-06-06 18:00:00+00:00,0.0
2024-06-06 19:00:00+00:00,0.0
2024-06-07 13:00:00+00:00,0.0
2024-06-07 14:00:00+00:00,0.0
2024-06-07 15:00:00+00:00,0.0
2024-06-07 16:00:00+00:00,0.0
2024-06-07 17:00:00+00:00,0.0
2024-06-07 18:00:00+00:00,0.0
2024-06-07 19:00:00+00:00,0.0
2024-06-10 13:00:00+00:00,0.0
2024-06-10 14:00:00+00:00,0.0
2024-06-10 15:00:00+00:00,0.0
2024-06-10 16:00:00+00:00,0.0
2024-06-10 17:00:00+00:00,0.0
2024-06-10 18:00:00+00:00,0.0
2024-06-10 19:00:00+00:00,0.0
2024-06-11 13:00:00+00:00,0.0
2024-06-11 14:00:00+00:00,0.0
2024-06-11 15:00:00+00:00,0.0
2024-06-11 16:00:00+00:00,0.0
2024-06-11 17:00:00+00:00,0.0
2024-06-11 18:00:00+00:00,0.0
2024-06-11 19:00:00+00:00,0.0
2024-06-12 13:00:00+00:00,0.0
2024-06-12 14:00:00+00:00,0.0
2024-06-12 15:00:00+00:00,0.0
2024-06-12 16:00:00+00:00,0.0
2024-06-12 17:00:00+00:00,0.0
2024-06-12 18:00:00+00:00,0.0
2024-06-12 19:00:00+00:00,0.0
2024-06-13 13:00:00+00:00,0.0
2024-06-13 14:00:00+00:00,0.0
2024-06-13 15:00:00+00:00,0.0
2024-06-13 16:00:00+00:00,0.0
2024-06-13 17:00:00+00:00,0.0
2024-06-13 18:00:00+00:00,0.0
2024-06-13 19:00:00+00:00,0.0
2024-06-14 13:00:00+00:00,0.0
2024-06-14 14:00:00+00:00,0.0
2024-06-14 15:00:00+00:00,0.0
2024-06-14 16:00:00+00:00,0.0
2024-06-14 17:00:00+00:00,0.0
2024-06-14 18:00:00+00:00,0.0
2024-06-14 19:00:00+00:00,0.0
2024-06-17 13:00:00+00:00,0.0
2024-06-17 14:00:00+00:00,0.0
2024-06-17 15:00:00+00:00,0.0
2024-06-17 16:00:00+00:00,0.0
2024-06-17 17:00:00+00:00,0.0
2024-06-17 18:00:00+00:00,0.0
2024-06-17 19:00:00+00:00,0.0
2024-06-18 13:00:00+00:00,0.0
2024-06-18 14:00:00+00:00,0.0
2024-06-18 15:00:00+00:00,0.0
2024-06-18 16:00:00+00:00,0.0
2024-06-18 17:00:00+00:00,0.0
2024-06-18 18:00:00+00:00,0.0
2024-06-18 19:00:00+00:00,0.0
2024-06-20 13:00:00+00:00,0.0
2024-06-20 14:00:00+00:00,0.0
2024-06-20 15:00:00+00:00,0.0
2024-06-20 16:00:00+00:00,0.0
2024-06-20 17:00:00+00:00,0.0
2024-06-20 18:00:00+00:00,0.0
2024-06-20 19:00:00+00:00,0.0
2024-06-21 13:00:00+00:00,0.0
2024-06-21 14:00:00+00:00,0.0
2024-06-21 15:00:00+00:00,0.0
2024-06-21 16:00:00+00:00,0.0
2024-06-21 17:00:00+00:00,0.0
2024-06-21 18:00:00+00:00,0.0
2024-06-21 19:00:00+00:00,0.0
2024-06-24 13:00:00+00:00,0.0
2024-06-24 14:00:00+00:00,0.0
2024-06-24 15:00:00+00:00,0.0
2024-06-24 16:00:00+00:00,0.0
2024-06-24 17:00:00+00:00,0.0
2024-06-24 18:00:00+00:00,0.0
2024-06-24 19:00:00+00:00,0.0
2024-06-25 13:00:00+00:00,0.0
2024-06-25 14:00:00+00:00,0.0
2024-06-25 15:00:00+00:00,0.0
2024-06-25 16:00:00+00:00,0.0
2024-06-25 17:00:00+00:00,0.0
2024-06-25 18:00:00+00:00,0.0
2024-06-25 19:00:00+00:00,0.0
2024-06-26 13:00:00+00:00,0.0
2024-06-26 14:00:00+00:00,0.0
2024-06-26 15:00:00+00:00,0.0
2024-06-26 16:00:00+00:00,0.0
2024-06-26 17:00:00+00:00,0.0
2024-06-26 18:00:00+00:00,0.0
2024-06-26 19:00:00+00:00,0.0
2024-06-27 13:00:00+00:00,0.0
2024-06-27 14:00:00+00:00,0.0
2024-06-27 15:00:00+00:00,0.0
2024-06-27 16:00:00+00:00,0.0
2024-06-27 17:00:00+00:00,0.0
2024-06-27 18:00:00+00:00,0.0
2024-06-27 19:00:00+00:00,0.0
2024-06-28 13:00:00+00:00,0.0
2024-06-28 14:00:00+00:00,0.0
2024-06-28 15:00:00+00:00,0.0
2024-06-28 16:00:00+00:00,0.0
2024-06-28 17:00:00+00:00,0.0
2024-06-28 18:00:00+00:00,0.0
2024-06-28 19:00:00+00:00,0.0
2024-07-01 13:00:00+00:00,0.0
2024-07-01 14:00:00+00:00,0.0
2024-07-01 15:00:00+00:00,0.0
2024-07-01 16:00:00+00:00,0.0
2024-07-01 17:00:00+00:00,0.0
2024-07-01 18:00:00+00:00,0.0
2024-07-01 19:00:00+00:00,0.0
2024-07-02 13:00:00+00:00,0.0
2024-07-02 14:00:00+00:00,0.0
2024-07-02 15:00:00+00:00,0.0
2024-07-02 16:00:00+00:00,0.0
2024-07-02 17:00:00+00:00,0.0
2024-07-02 18:00:00+00:00,0.0
2024-07-02 19:00:00+00:00,0.0
2024-07-03 13:00:00+00:00,0.0
2024-07-03 14:00:00+00:00,0.0
2024-07-03 15:00:00+00:00,0.0
2024-07-05 13:00:00+00:00,0.0
2024-07-05 14:00:00+00:00,0.0
2024-07-05 15:00:00+00:00,0.0
2024-07-05 16:00:00+00:00,0.0
2024-07-05 17:00:00+00:00,0.0
2024-07-05 18:00:00+00:00,0.0
2024-07-05 19:00:00+00:00,0.0
2024-07-08 13:00:00+00:00,0.0
2024-07-08 14:00:00+00:00,0.0
2024-07-08 15:00:00+00:00,0.0
2024-07-08 16:00:00+00:00,0.0
2024-07-08 17:00:00+00:00,0.0
2024-07-08 18:00:00+00:00,0.0
2024-07-08 19:00:00+00:00,0.0
2024-07-09 13:00:00+00:00,-322.88767923613045
2024-07-09 14:00:00+00:00,-353.63098225491837
2024-07-09 15:00:00+00:00,-350.13111260152925
2024-07-09 16:00:00+00:00,-325.38237533358415
2024-07-09 17:00:00+00:00,-347.5658825571748
2024-07-09 18:00:00+00:00,-352.5936336774055
2024-07-09 19:00:00+00:00,-359.05256426909466
2024-07-10 13:00:00+00:00,-304.683505206371
2024-07-10 14:00:00+00:00,-311.08819342072616
2024-07-10 15:00:00+00:00,-338.4932553299879
2024-07-10 16:00:00+00:00,-336.6755902556028
2024-07-10 17:00:00+00:00,-358.33788771608243
2024-07-10 18:00:00+00:00,-357.06277780728607
2024-07-10 19:00:00+00:00,-351.5733614218744
2024-07-11 13:00:00+00:00,-364.45012424494416
2024-07-11 14:00:00+00:00,-349.55433070105886
2024-07-11 15:00:00+00:00,-383.67883961073045
2024-07-11 16:00:00+00:00,-385.64245802405696
2024-07-11 17:00:00+00:00,-388.07010450269036
2024-07-11 18:00:00+00:00,-363.4624351285461
2024-07-11 19:00:00+00:00,-364.5710224904395
2024-07-12 13:00:00+00:00,-315.3437411680152
2024-07-12 14:00:00+00:00,-312.95379522096573
2024-07-12 15:00:00+00:00,-310.55499266625907
2024-07-12 16:00:00+00:00,-312.6915172194244
2024-07-12 17:00:00+00:00,-338.85128142632175
2024-07-12 18:00:00+00:00,-335.1206105399101
2024-07-12 19:00:00+00:00,-350.774036860266
2024-07-15 13:00:00+00:00,-445.10421769530643
2024-07-15 14:00:00+00:00,-475.12495386245183
2024-07-15 15:00:00+00:00,-480.3273005979012
2024-07-15 16:00:00+00:00,-493.4565095039839
2024-07-15 17:00:00+00:00,-482.08011082593833
2024-07-15 18:00:00+00:00,-465.60947558466466
2024-07-15 19:00:00+00:00,-466.60064902914314
2024-07-16 13:00:00+00:00,-554.4245312694898
2024-07-16 14:00:00+00:00,-527.4999573828715
2024-07-16 15:00:00+00:00,-522.3090082139481
2024-07-16 16:00:00+00:00,-512.0729336848339
2024-07-16 17:00:00+00:00,-491.5204719018042
2024-07-16 18:00:00+00:00,-481.4877360242681
2024-07-16 19:00:00+00:00,-473.54645979431086
2024-07-17 13:00:00+00:00,-384.74257050412626
2024-07-17 14:00:00+00:00,-381.4545822805444
2024-07-17 15:00:00+00:00,-383.9300789856765
2024-07-17 16:00:00+00:00,-387.6820952745653
2024-07-17 17:00:00+00:00,-395.98581212930634
2024-07-17 18:00:00+00:00,-368.8406502641204
2024-07-17 19:00:00+00:00,-377.1052234411235
2024-07-18 13:00:00+00:00,-337.5228568029722
2024-07-18 14:00:00+00:00,-350.1821792000153
2024-07-18 15:00:00+00:00,-357.47416196021607
2024-07-18 16:00:00+00:00,-342.1781224317332
2024-07-18 17:00:00+00:00,-356.03752053829123
2024-07-18 18:00:00+00:00,-362.34684507518875
2024-07-18 19:00:00+00:00,-344.11049602385157
2024-07-19 13:00:00+00:00,-346.70015623910746
2024-07-19 14:00:00+00:00,-345.21835560844914
2024-07-19 15:00:00+00:00,-318.1946428266803
2024-07-19 16:00:00+00:00,-305.6162130726514
2024-07-19 17:00:00+00:00,-302.37163760730294
2024-07-19 18:00:00+00:00,-301.9138333050615
2024-07-19 19:00:00+00:00,-318.3088804214269
2024-07-22 13:00:00+00:00,-308.06456564930085
2024-07-22 14:00:00+00:00,-282.3106548254207
2024-07-22 15:00:00+00:00,-281.3132346780612
2024-07-22 16:00:00+00:00,-279.0274295451368
2024-07-22 17:00:00+00:00,-280.7798425960085
2024-07-22 18:00:00+00:00,-279.41998182386516
2024-07-22 19:00:00+00:00,-279.22634664619466
2024-07-23 13:00:00+00:00,-319.3356902757476
2024-07-23 14:00:00+00:00,-319.62893527155524
2024-07-23 15:00:00+00:00,-337.41227307255144
2024-07-23 16:00:00+00:00,-323.16052066913943
2024-07-23 17:00:00+00:00,-329.24270798937124
2024-07-23 18:00:00+00:00,-315.10045070252283
2024-07-23 19:00:00+00:00,-312.37475787116824
2024-07-24 13:00:00+00:00,-307.24429778246025
2024-07-24 14:00:00+00:00,-315.7815782450248
2024-07-24 15:00:00+00:00,-321.25058011222757
2024-07-24 16:00:00+00:00,-332.3717672447549
2024-07-24 17:00:00+00:00,-348.1632251077074
2024-07-24 18:00:00+00:00,-352.644223338889
2024-07-24 19:00:00+00:00,-384.8969931846119
2024-07-25 13:00:00+00:00,-355.122651151689
2024-07-25 14:00:00+00:00,-334.61236202413863
2024-07-25 15:00:00+00:00,-319.44418666972416
2024-07-25 16:00:00+00:00,-321.49082079640476
2024-07-25 17:00:00+00:00,-310.4553599083061
2024-07-25 18:00:00+00:00,-305.9991914076814
2024-07-25 19:00:00+00:00,-313.61564104508267
2024-07-26 13:00:00+00:00,-317.13716993667276
2024-07-26 14:00:00+00:00,-317.6176579593159
2024-07-26 15:00:00+00:00,-277.1695105655661
2024-07-26 16:00:00+00:00,-278.2894155790503
2024-07-26 17:00:00+00:00,-283.4326829092449
2024-07-26 18:00:00+00:00,-302.68425038320277
2024-07-26 19:00:00+00:00,-301.64324908983997
2024-07-29 13:00:00+00:00,-297.0604720905491
2024-07-29 14:00:00+00:00,-307.5113747297862
2024-07-29 15:00:00+00:00,-331.7203277648433
2024-07-29 16:00:00+00:00,-345.20201815925185
2024-07-29 17:00:00+00:00,-335.2203658060023
2024-07-29 18:00:00+00:00,-324.78866255908616
2024-07-29 19:00:00+00:00,-316.7185093121693
2024-07-30 13:00:00+00:00,-356.81855296813137
2024-07-30 14:00:00+00:00,-364.27063462668497
2024-07-30 15:00:00+00:00,-384.62216282871003
2024-07-30 16:00:00+00:00,-393.41063678659026
2024-07-30 17:00:00+00:00,-394.50998115001204
2024-07-30 18:00:00+00:00,-385.87496376895245
2024-07-30 19:00:00+00:00,-372.29176771694875
2024-07-31 13:00:00+00:00,-283.1016325536235
2024-07-31 14:00:00+00:00,-305.23728955071545
2024-07-31 15:00:00+00:00,-259.9790482527323
2024-07-31 16:00:00+00:00,-279.22286231811466
2024-07-31 17:00:00+00:00,-278.03665796527184
2024-07-31 18:00:00+00:00,-272.04758863784843
2024-07-31 19:00:00+00:00,-262.5442782970868
2024-08-01 13:00:00+00:00,-331.7061822054325
2024-08-01 14:00:00+00:00,-360.119157105614
2024-08-01 15:00:00+00:00,-352.5046621507831
2024-08-01 16:00:00+00:00,-341.86303215663065
2024-08-01 17:00:00+00:00,-344.9670932936878
2024-08-01 18:00:00+00:00,-316.7975584802449
2024-08-01 19:00:00+00:00,-310.2638248611599
2024-08-02 13:00:00+00:00,-416.86210249313103
2024-08-02 14:00:00+00:00,-425.07472475091015
2024-08-02 15:00:00+00:00,-413.1435995437443
2024-08-02 16:00:00+00:00,-393.4342277675456
2024-08-02 17:00:00+00:00,-402.10813865564563
2024-08-02 18:00:00+00:00,-430.1381352207978
2024-08-02 19:00:00+00:00,-440.66598689758627
2024-08-05 13:00:00+00:00,-677.574547216606
2024-08-05 14:00:00+00:00,-673.1939664957924
2024-08-05 15:00:00+00:00,-646.9814895570714
2024-08-05 16:00:00+00:00,-663.1356351344377
2024-08-05 17:00:00+00:00,-676.533737250829
2024-08-05 18:00:00+00:00,-664.843929060063
2024-08-05 19:00:00+00:00,-677.6201059849955
2024-08-06 13:00:00+00:00,-709.140241172575
2024-08-06 14:00:00+00:00,-713.3878441837023
2024-08-06 15:00:00+00:00,-695.654281697671
2024-08-06 16:00:00+00:00,-659.5035422241175
2024-08-06 17:00:00+00:00,-657.4986570627134
2024-08-06 18:00:00+00:00,-668.2214822350969
2024-08-06 19:00:00+00:00,-669.8790254713139
2024-08-07 13:00:00+00:00,-669.8183909431445
2024-08-07 14:00:00+00:00,-636.5269342019842
2024-08-07 15:00:00+00:00,-642.2568828513799
2024-08-07 16:00:00+00:00,-652.2265127155589
2024-08-07 17:00:00+00:00,-656.3993126992914
2024-08-07 18:00:00+00:00,-639.6664976014363
2024-08-07 19:00:00+00:00,-662.7785548184436
2024-08-08 13:00:00+00:00,-642.4981998677797
2024-08-08 14:00:00+00:00,-655.6659162285483
2024-08-08 15:00:00+00:00,-648.4702502859905
2024-08-08 16:00:00+00:00,-646.9373149862381
2024-08-08 17:00:00+00:00,-617.7624382290905
2024-08-08 18:00:00+00:00,-626.0347648146691
2024-08-08 19:00:00+00:00,-648.9278862004624
2024-08-09 13:00:00+00:00,-701.3614011787112
2024-08-09 14:00:00+00:00,-705.1924895754909
2024-08-09 15:00:00+00:00,-696.8973108817413
2024-08-09 16:00:00+00:00,-681.2597281540759
2024-08-09 17:00:00+00:00,-692.2701909238472
2024-08-09 18:00:00+00:00,-684.4079868017816
2024-08-09 19:00:00+00:00,-696.0144538041608
2024-08-12 13:00:00+00:00,-656.1529877296124
2024-08-12 14:00:00+00:00,-643.3020077772844
2024-08-12 15:00:00+00:00,-646.0252136496512
2024-08-12 16:00:00+00:00,-648.6660314738168
2024-08-12 17:00:00+00:00,-646.1042857575425
2024-08-12 18:00:00+00:00,-642.2189549834284
2024-08-12 19:00:00+00:00,-664.4902408636714
2024-08-13 13:00:00+00:00,-648.6985916731336
2024-08-13 14:00:00+00:00,-620.2920089237871
2024-08-13 15:00:00+00:00,-628.5600664288705
2024-08-13 16:00:00+00:00,-617.2106315071319
2024-08-13 17:00:00+00:00,-607.2831056773666
2024-08-13 18:00:00+00:00,-608.0319793711564
2024-08-13 19:00:00+00:00,-599.689118838677
2024-08-14 13:00:00+00:00,-598.8227217184333
2024-08-14 14:00:00+00:00,-611.5112883744829
2024-08-14 15:00:00+00:00,-629.4158023177833
2024-08-14 16:00:00+00:00,-610.4952851994475
2024-08-14 17:00:00+00:00,-604.103404226578
2024-08-14 18:00:00+00:00,-604.3317456137215
2024-08-14 19:00:00+00:00,-603.4411351275658
2024-08-15 13:00:00+00:00,-560.3032566182777
2024-08-15 14:00:00+00:00,-546.5165770514494
2024-08-15 15:00:00+00:00,-540.6720653322742
2024-08-15 16:00:00+00:00,-541.0346743448279
2024-08-15 17:00:00+00:00,-537.0096258098423
2024-08-15 18:00:00+00:00,-551.7131563892077
2024-08-15 19:00:00+00:00,-552.2075504108773
2024-08-16 13:00:00+00:00,-556.4107875235867
2024-08-16 14:00:00+00:00,-545.9478623952783
2024-08-16 15:00:00+00:00,-552.1199401419949
2024-08-16 16:00:00+00:00,-546.3977449011744
2024-08-16 17:00:00+00:00,-553.9645580172771
2024-08-16 18:00:00+00:00,-552.1384073158216
2024-08-16 19:00:00+00:00,-555.142806100821
2024-08-19 13:00:00+00:00,-523.9525513387082
2024-08-19 14:00:00+00:00,-513.1931136764815
2024-08-19 15:00:00+00:00,-531.8062172997833
2024-08-19 16:00:00+00:00,-537.0944848287343
2024-08-19 17:00:00+00:00,-534.6189881236021
2024-08-19 18:00:00+00:00,-534.9771596678905
2024-08-19 19:00:00+00:00,-550.886833316472
2024-08-20 13:00:00+00:00,-591.9685989750574
2024-08-20 14:00:00+00:00,-590.0191261211417
2024-08-20 15:00:00+00:00,-613.4101486270993
2024-08-20 16:00:00+00:00,-627.8900439212823
2024-08-20 17:00:00+00:00,-635.7437098823574
2024-08-20 18:00:00+00:00,-637.588496145409
2024-08-20 19:00:00+00:00,-641.2408796763447
2024-08-21 13:00:00+00:00,-603.2075715197419
2024-08-21 14:00:00+00:00,-605.7935306019275
2024-08-21 15:00:00+00:00,-615.5154512988721
2024-08-21 16:00:00+00:00,-611.7903878108801
2024-08-21 17:00:00+00:00,-603.1122078422843
2024-08-21 18:00:00+00:00,-606.2292446085974
2024-08-21 19:00:00+00:00,-607.7300048867713
2024-08-22 13:00:00+00:00,-641.3284899452268
2024-08-22 14:00:00+00:00,-640.1537261897635
2024-08-22 15:00:00+00:00,-636.489151781987
2024-08-22 16:00:00+00:00,-617.7276811912698
2024-08-22 17:00:00+00:00,-627.2356966186152
2024-08-22 18:00:00+00:00,-628.5478755520294
2024-08-22 19:00:00+00:00,-616.1135786018193
2024-08-23 13:00:00+00:00,-556.9300111064133
2024-08-23 14:00:00+00:00,-542.7081836755783
2024-08-23 15:00:00+00:00,-556.6305491712292
2024-08-23 16:00:00+00:00,-543.5026043227522
2024-08-23 17:00:00+00:00,-542.6998026018506
2024-08-23 18:00:00+00:00,-531.5226574553053
2024-08-23 19:00:00+00:00,-528.291057619213
2024-08-26 13:00:00+00:00,-516.8520806858382
2024-08-26 14:00:00+00:00,-541.1384077955066
2024-08-26 15:00:00+00:00,-537.2186327976223
2024-08-26 16:00:00+00:00,-530.6442494852988
2024-08-26 17:00:00+00:00,-536.6510174134893
2024-08-26 18:00:00+00:00,-538.0151472661281
2024-08-26 19:00:00+00:00,-539.8471262876936
2024-08-27 13:00:00+00:00,-546.6855738261484
2024-08-27 14:00:00+00:00,-549.9041980329845
2024-08-27 15:00:00+00:00,-547.6721414145916
2024-08-27 16:00:00+00:00,-545.0985415970165
2024-08-27 17:00:00+00:00,-536.6052902573305
2024-08-27 18:00:00+00:00,-517.984770000993
2024-08-27 19:00:00+00:00,-512.471308637439
2024-08-28 13:00:00+00:00,-556.8174256590194
2024-08-28 14:00:00+00:00,-568.75647266253
2024-08-28 15:00:00+00:00,-581.4537458673407
2024-08-28 16:00:00+00:00,-580.866111407954
2024-08-28 17:00:00+00:00,-577.776195830308
2024-08-28 18:00:00+00:00,-569.2639134860702
2024-08-28 19:00:00+00:00,-545.0237385696206
2024-08-29 13:00:00+00:00,-563.9505023908379
2024-08-29 14:00:00+00:00,-570.63811114521
2024-08-29 15:00:00+00:00,-542.760314621881
2024-08-29 16:00:00+00:00,-538.2901347092925
2024-08-29 17:00:00+00:00,-536.2451640304721
2024-08-29 18:00:00+00:00,-530.821670364579
2024-08-29 19:00:00+00:00,-523.9017932894544
2024-08-30 13:00:00+00:00,-621.7720631039455
2024-08-30 14:00:00+00:00,-614.35564079505
2024-08-30 15:00:00+00:00,-627.2508182580264
2024-08-30 16:00:00+00:00,-619.5735427648708
2024-08-30 17:00:00+00:00,-618.0372915248082
2024-08-30 18:00:00+00:00,-625.3994714563696
2024-08-30 19:00:00+00:00,-602.5540319093059
2024-09-03 13:00:00+00:00,-770.3308627793567
2024-09-03 14:00:00+00:00,-766.2121367851887
2024-09-03 15:00:00+00:00,-764.8964735236941
2024-09-03 16:00:00+00:00,-766.0712372791578
2024-09-03 17:00:00+00:00,-754.9731642405042
2024-09-03 18:00:00+00:00,-748.2684791641503
2024-09-03 19:00:00+00:00,-713.8541866469352
2024-09-04 13:00:00+00:00,-763.7558394723783
2024-09-04 14:00:00+00:00,-765.0003524223271
2024-09-04 15:00:00+00:00,-771.4550139335208
2024-09-04 16:00:00+00:00,-776.6296715328779
2024-09-04 17:00:00+00:00,-773.3624123471277
2024-09-04 18:00:00+00:00,-782.5778116348918
2024-09-04 19:00:00+00:00,-790.1654359168502
2024-09-05 13:00:00+00:00,-768.4470782865213
2024-09-05 14:00:00+00:00,-755.405947484603
2024-09-05 15:00:00+00:00,-775.0911058948902
2024-09-05 16:00:00+00:00,-766.8536539065542
2024-09-05 17:00:00+00:00,-761.1942392040586
2024-09-05 18:00:00+00:00,-767.693098225901
2024-09-05 19:00:00+00:00,-773.525587456005
2024-09-06 13:00:00+00:00,-801.4388749412227
2024-09-06 14:00:00+00:00,-822.851942146857
2024-09-06 15:00:00+00:00,-842.6200493693229
2024-09-06 16:00:00+00:00,-827.1639109424875
2024-09-06 17:00:00+00:00,-854.4521326911145
2024-09-06 18:00:00+00:00,-842.8449064283863
2024-09-06 19:00:00+00:00,-839.6133065922929
2024-09-09 13:00:00+00:00,-846.5385796472149
2024-09-09 14:00:00+00:00,-850.4237420335589
2024-09-09 15:00:00+00:00,-845.8888938012508
2024-09-09 16:00:00+00:00,-836.1068764002997
2024-09-09 17:00:00+00:00,-851.3282509894954
2024-09-09 18:00:00+00:00,-842.4950490566507
2024-09-09 19:00:00+00:00,-860.9972979266911
2024-09-10 13:00:00+00:00,-983.3496204380084
2024-09-10 14:00:00+00:00,-976.4697377637066
2024-09-10 15:00:00+00:00,-1007.4485034722198
2024-09-10 16:00:00+00:00,-1035.7911128132716
2024-09-10 17:00:00+00:00,-998.0331957765475
2024-09-10 18:00:00+00:00,-986.0908049441945
2024-09-10 19:00:00+00:00,-963.0025853049162
2024-09-11 13:00:00+00:00,-919.1524244419672
2024-09-11 14:00:00+00:00,-934.5539281152613
2024-09-11 15:00:00+00:00,-930.5103975246975
2024-09-11 16:00:00+00:00,-917.5615384483636
2024-09-11 17:00:00+00:00,-915.6541400347558
2024-09-11 18:00:00+00:00,-907.9460350364158
2024-09-11 19:00:00+00:00,-913.0098378825106
2024-09-12 13:00:00+00:00,-879.8949285271323
2024-09-12 14:00:00+00:00,-859.5438041712227
2024-09-12 15:00:00+00:00,-864.4577769740888
2024-09-12 16:00:00+00:00,-842.9239555964609
2024-09-12 17:00:00+00:00,-844.6896697516215
2024-09-12 18:00:00+00:00,-850.2738890505148
2024-09-12 19:00:00+00:00,-858.4320449425221
2024-09-13 13:00:00+00:00,-812.7739729759643
2024-09-13 14:00:00+00:00,-828.04501438612
2024-09-13 15:00:00+00:00,-835.9862906160769
2024-09-13 16:00:00+00:00,-837.4104011494737
2024-09-13 17:00:00+00:00,-845.0061821716254
2024-09-13 18:00:00+00:00,-836.5710068827077
2024-09-13 19:00:00+00:00,-829.2984578732683
2024-09-16 13:00:00+00:00,-776.1448914899231
2024-09-16 14:00:00+00:00,-801.6660234583951
2024-09-16 15:00:00+00:00,-816.484722516775
2024-09-16 16:00:00+00:00,-808.6260027227895
2024-09-16 17:00:00+00:00,-796.0705821641947
2024-09-16 18:00:00+00:00,-795.8583639588477
2024-09-16 19:00:00+00:00,-786.6804965752874
2024-09-17 13:00:00+00:00,-772.7466322168733
2024-09-17 14:00:00+00:00,-784.7980962800079
2024-09-17 15:00:00+00:00,-786.572348596159
2024-09-17 16:00:00+00:00,-780.7582740059613
2024-09-17 17:00:00+00:00,-770.1100834732034
2024-09-17 18:00:00+00:00,-762.2521484316333
2024-09-17 19:00:00+00:00,-769.6069117301583
2024-09-18 13:00:00+00:00,-789.4704495312576
2024-09-18 14:00:00+00:00,-805.1238645511061
2024-09-18 15:00:00+00:00,-802.983855669861
2024-09-18 16:00:00+00:00,-794.0611529441315
2024-09-18 17:00:00+00:00,-772.4425576019652
2024-09-18 18:00:00+00:00,-794.9648685897527
2024-09-18 19:00:00+00:00,-819.5283404532479
2024-09-19 13:00:00+00:00,-717.5585440369105
2024-09-19 14:00:00+00:00,-713.5047445912232
2024-09-19 15:00:00+00:00,-746.9085887979022
2024-09-19 16:00:00+00:00,-751.0415128854019
2024-09-19 17:00:00+00:00,-740.5849799079288
2024-09-19 18:00:00+00:00,-769.389662631717
2024-09-19 19:00:00+00:00,-767.6822915466163
2024-09-20 13:00:00+00:00,-810.098494821958
2024-09-20 14:00:00+00:00,-803.5248327727193
2024-09-20 15:00:00+00:00,-789.1331641120637
2024-09-20 16:00:00+00:00,-785.7641490980205
2024-09-20 17:00:00+00:00,-794.9065255196928
2024-09-20 18:00:00+00:00,-789.9619472000799
2024-09-20 19:00:00+00:00,-811.8619175190081
2024-09-23 13:00:00+00:00,-774.6781214882535
2024-09-23 14:00:00+00:00,-794.1382544517078
2024-09-23 15:00:00+00:00,-816.3715665843671
2024-09-23 16:00:00+00:00,-819.7681756772471
2024-09-23 17:00:00+00:00,-803.3789023735928
2024-09-23 18:00:00+00:00,-814.3979033043555
2024-09-23 19:00:00+00:00,-806.2565997458921
2024-09-24 13:00:00+00:00,-786.7823212230273
2024-09-24 14:00:00+00:00,-795.8291655794727
2024-09-24 15:00:00+00:00,-818.233260781631
2024-09-24 16:00:00+00:00,-819.3326051450533
2024-09-24 17:00:00+00:00,-812.0611830349144
2024-09-24 18:00:00+00:00,-809.6897565560007
2024-09-24 19:00:00+00:00,-815.8133677115728
2024-09-25 13:00:00+00:00,-941.4097049242616
2024-09-25 14:00:00+00:00,-940.3731410991642
2024-09-25 15:00:00+00:00,-947.98549004384
2024-09-25 16:00:00+00:00,-965.0135390603955
2024-09-25 17:00:00+00:00,-957.1598730993204
2024-09-25 18:00:00+00:00,-975.370607667685
2024-09-25 19:00:00+00:00,-976.9820543113508
2024-09-26 13:00:00+00:00,-1092.6380059188675
2024-09-26 14:00:00+00:00,-1077.4404062783667
2024-09-26 15:00:00+00:00,-1051.1614175449877
2024-09-26 16:00:00+00:00,-1063.0900043657898
2024-09-26 17:00:00+00:00,-1063.7920335071858
2024-09-26 18:00:00+00:00,-1067.006949397504
2024-09-26 19:00:00+00:00,-1070.2381568573887
2024-09-27 13:00:00+00:00,-1020.7684168080633
2024-09-27 14:00:00+00:00,-1018.5462070744817
2024-09-27 15:00:00+00:00,-1007.5275985199273
2024-09-27 16:00:00+00:00,-998.8490261751232
2024-09-27 17:00:00+00:00,-1018.6733533973098
2024-09-27 18:00:00+00:00,-1001.0346458441796
2024-09-27 19:00:00+00:00,-981.1798294735944
2024-09-30 13:00:00+00:00,-967.3709654278515
2024-09-30 14:00:00+00:00,-966.267351983934
2024-09-30 15:00:00+00:00,-971.3350315343191
2024-09-30 16:00:00+00:00,-978.3895739824077
2024-09-30 17:00:00+00:00,-983.4013064741835
2024-09-30 18:00:00+00:00,-989.5218523746405
2024-09-30 19:00:00+00:00,-1000.6645681791678
2024-10-01 13:00:00+00:00,-940.2254341262745
2024-10-01 14:00:00+00:00,-961.744549180513
2024-10-01 15:00:00+00:00,-970.560536703267
2024-10-01 16:00:00+00:00,-925.6104936527339
2024-10-01 17:00:00+00:00,-945.2287708319705
2024-10-01 18:00:00+00:00,-949.8737248283436
2024-10-01 19:00:00+00:00,-938.2130838936578
2024-10-02 13:00:00+00:00,-887.0817671616619
2024-10-02 14:00:00+00:00,-889.7636833461352
2024-10-02 15:00:00+00:00,-913.644871857279
2024-10-02 16:00:00+00:00,-920.6261552907373
2024-10-02 17:00:00+00:00,-924.806708683045
2024-10-02 18:00:00+00:00,-927.779769732802
2024-10-02 19:00:00+00:00,-919.0519532429074
2024-10-03 13:00:00+00:00,-981.865168698826
2024-10-03 14:00:00+00:00,-984.6188864900074
2024-10-03 15:00:00+00:00,-969.9837777426127
2024-10-03 16:00:00+00:00,-969.5984850096572
2024-10-03 17:00:00+00:00,-956.963207590756
2024-10-03 18:00:00+00:00,-946.2362817256469
2024-10-03 19:00:00+00:00,-954.8315684827315
2024-10-04 13:00:00+00:00,-908.6512628698897
2024-10-04 14:00:00+00:00,-923.4242100701312
2024-10-04 15:00:00+00:00,-905.1352832035461
2024-10-04 16:00:00+00:00,-888.1148925383105
2024-10-04 17:00:00+00:00,-912.0391157987349
2024-10-04 18:00:00+00:00,-924.4216302174906
2024-10-04 19:00:00+00:00,-917.7979948714136
2024-10-07 13:00:00+00:00,-900.6447215537481
2024-10-07 14:00:00+00:00,-914.9158829706646
2024-10-07 15:00:00+00:00,-909.5605658228932
2024-10-07 16:00:00+00:00,-895.376677899319
2024-10-07 17:00:00+00:00,-901.8822545470294
2024-10-07 18:00:00+00:00,-893.5229051533038
2024-10-07 19:00:00+00:00,-890.5004875164507
2024-10-08 13:00:00+00:00,-1037.0582557949297
2024-10-08 14:00:00+00:00,-1043.1942818157806
2024-10-08 15:00:00+00:00,-1035.915443072606
2024-10-08 16:00:00+00:00,-1023.3779136970106
2024-10-08 17:00:00+00:00,-1029.0898027756375
2024-10-08 18:00:00+00:00,-1026.6705260702252
2024-10-08 19:00:00+00:00,-1036.2984443474516
2024-10-09 13:00:00+00:00,-1086.391025576432
2024-10-09 14:00:00+00:00,-1064.8864713976277
2024-10-09 15:00:00+00:00,-1058.2026837468754
2024-10-09 16:00:00+00:00,-1052.4897968828056
2024-10-09 17:00:00+00:00,-1044.614968443679
2024-10-09 18:00:00+00:00,-1047.417246423937
2024-10-09 19:00:00+00:00,-1057.328533218056
2024-10-10 13:00:00+00:00,-1019.5200821205163
2024-10-10 14:00:00+00:00,-1025.6132972111238
2024-10-10 15:00:00+00:00,-1014.1570115641695
2024-10-10 16:00:00+00:00,-1008.3516435227322
2024-10-10 17:00:00+00:00,-1008.0682750058396
2024-10-10 18:00:00+00:00,-1027.2806988020593
2024-10-10 19:00:00+00:00,-1010.8585304970268
2024-10-11 13:00:00+00:00,-1030.4582246485875
2024-10-11 14:00:00+00:00,-1068.842359058458
2024-10-11 15:00:00+00:00,-1074.2852864751114
2024-10-11 16:00:00+00:00,-1065.1151725001264
2024-10-11 17:00:00+00:00,-1063.3494583449658
2024-10-11 18:00:00+00:00,-1056.8785052642056
2024-10-11 19:00:00+00:00,-1063.0289008329053
2024-10-14 13:00:00+00:00,-1080.994217692145
2024-10-14 14:00:00+00:00,-1067.997284400876
2024-10-14 15:00:00+00:00,-1045.360410343308
2024-10-14 16:00:00+00:00,-1064.841103956824
2024-10-14 17:00:00+00:00,-1066.624343101036
2024-10-14 18:00:00+00:00,-1075.255562493988
2024-10-14 19:00:00+00:00,-1065.940055944039
2024-10-15 13:00:00+00:00,-1218.5838769465295
2024-10-15 14:00:00+00:00,-1223.5542381368853
2024-10-15 15:00:00+00:00,-1229.248751425062
2024-10-15 16:00:00+00:00,-1236.811295460669
2024-10-15 17:00:00+00:00,-1236.3488035194648
2024-10-15 18:00:00+00:00,-1232.0335078281132
2024-10-15 19:00:00+00:00,-1230.3897549127698
2024-10-16 13:00:00+00:00,-1176.6865048778075
2024-10-16 14:00:00+00:00,-1192.0366183958542
2024-10-16 15:00:00+00:00,-1206.2199455554507
2024-10-16 16:00:00+00:00,-1188.8881913603786
2024-10-16 17:00:00+00:00,-1197.2199237567513
2024-10-16 18:00:00+00:00,-1205.8617740111627
2024-10-16 19:00:00+00:00,-1193.0693055166641
2024-10-17 13:00:00+00:00,-1138.592430773534
2024-10-17 14:00:00+00:00,-1110.6464446404318
2024-10-17 15:00:00+00:00,-1116.4181046029375
2024-10-17 16:00:00+00:00,-1112.9680662102762
2024-10-17 17:00:00+00:00,-1104.4480304574638
2024-10-17 18:00:00+00:00,-1102.906949372929
2024-10-17 19:00:00+00:00,-1106.3635746558539
2024-10-18 13:00:00+00:00,-1109.266247206665
2024-10-18 14:00:00+00:00,-1103.2362460946017
2024-10-18 15:00:00+00:00,-1095.5841371075433
2024-10-18 16:00:00+00:00,-1096.4939469860203
2024-10-18 17:00:00+00:00,-1104.4313465116898
2024-10-18 18:00:00+00:00,-1104.4883664906747
2024-10-18 19:00:00+00:00,-1094.228937792103
2024-10-21 13:00:00+00:00,-1056.7311447878922
2024-10-21 14:00:00+00:00,-1059.106447971094
2024-10-21 15:00:00+00:00,-1046.0141510023666
2024-10-21 16:00:00+00:00,-1036.985721285829
2024-10-21 17:00:00+00:00,-1041.280351773775
2024-10-21 18:00:00+00:00,-1040.283978364533
2024-10-21 19:00:00+00:00,-1047.0344232578982
2024-10-22 13:00:00+00:00,-1034.4704645383124
2024-10-22 14:00:00+00:00,-1022.2106589741194
2024-10-22 15:00:00+00:00,-1034.2621230372533
2024-10-22 16:00:00+00:00,-1024.0430303718922
2024-10-22 17:00:00+00:00,-1028.4594275296256
2024-10-22 18:00:00+00:00,-1011.3018994987214
2024-10-22 19:00:00+00:00,-1009.8385817982567
2024-10-23 13:00:00+00:00,-1045.3851712544192
2024-10-23 14:00:00+00:00,-1063.1462473053257
2024-10-23 15:00:00+00:00,-1085.2755121515809
2024-10-23 16:00:00+00:00,-1084.4674581013974
2024-10-23 17:00:00+00:00,-1083.2740587843373
2024-10-23 18:00:00+00:00,-1076.9719636846103
2024-10-23 19:00:00+00:00,-1057.2162713274229
2024-10-24 13:00:00+00:00,-1036.7775252327237
2024-10-24 14:00:00+00:00,-1052.9434462095296
2024-10-24 15:00:00+00:00,-1084.1035893176977
2024-10-24 16:00:00+00:00,-1079.7577817075312
2024-10-24 17:00:00+00:00,-1071.4581099448485
2024-10-24 18:00:00+00:00,-1068.8928799004955
2024-10-24 19:00:00+00:00,-1053.3144249953043
2024-10-25 13:00:00+00:00,-991.0950159118156
2024-10-25 14:00:00+00:00,-1019.020718262312
2024-10-25 15:00:00+00:00,-999.36519648724
2024-10-25 16:00:00+00:00,-991.90171726216
2024-10-25 17:00:00+00:00,-973.0823310495722
2024-10-25 18:00:00+00:00,-976.2075136006681
2024-10-25 19:00:00+00:00,-979.7306277384354
2024-10-28 13:00:00+00:00,-1085.3297315891002
2024-10-28 14:00:00+00:00,-1055.818444167542
2024-10-28 15:00:00+00:00,-1057.1330755869897
2024-10-28 16:00:00+00:00,-1054.7927026016994
2024-10-28 17:00:00+00:00,-1073.5846977722124
2024-10-28 18:00:00+00:00,-1065.2639419025602
2024-10-28 19:00:00+00:00,-1054.7134065053701
2024-10-29 13:00:00+00:00,-1286.7662698453119
2024-10-29 14:00:00+00:00,-1317.2716465778478
2024-10-29 15:00:00+00:00,-1330.0429377125424
2024-10-29 16:00:00+00:00,-1333.645123958201
2024-10-29 17:00:00+00:00,-1347.9948080195397
2024-10-29 18:00:00+00:00,-1351.7849322034576
2024-10-29 19:00:00+00:00,-1366.1099436215015
2024-10-30 13:00:00+00:00,-1384.5932170876574
2024-10-30 14:00:00+00:00,-1356.6773336419305
2024-10-30 15:00:00+00:00,-1381.2806573622788
2024-10-30 16:00:00+00:00,-1404.3781389915
2024-10-30 17:00:00+00:00,-1418.8762625893196
2024-10-30 18:00:00+00:00,-1441.7178254320943
2024-10-30 19:00:00+00:00,-1437.303708431963
2024-10-31 13:00:00+00:00,-1419.6259735694453
2024-10-31 14:00:00+00:00,-1440.3395500200454
2024-10-31 15:00:00+00:00,-1432.9347123820323
2024-10-31 16:00:00+00:00,-1421.6881139987777
2024-10-31 17:00:00+00:00,-1425.347608046287
2024-10-31 18:00:00+00:00,-1390.846120576213
2024-10-31 19:00:00+00:00,-1397.8921248633121
2024-11-01 13:00:00+00:00,-1373.1478250636317
2024-11-01 14:00:00+00:00,-1364.7483521552253
2024-11-01 15:00:00+00:00,-1380.614444657803
2024-11-01 16:00:00+00:00,-1370.582729166725
2024-11-01 17:00:00+00:00,-1399.2195222765147
2024-11-01 18:00:00+00:00,-1403.7430287333227
2024-11-01 19:00:00+00:00,-1398.2252982892735
2024-11-04 14:00:00+00:00,-1331.1482023733067
2024-11-04 15:00:00+00:00,-1356.8526346936571
2024-11-04 16:00:00+00:00,-1328.7891247890027
2024-11-04 17:00:00+00:00,-1341.1239573690295
2024-11-04 18:00:00+00:00,-1341.1551792504229
2024-11-04 19:00:00+00:00,-1323.9051670532926
2024-11-04 20:00:00+00:00,-1341.128226449525
2024-11-05 14:00:00+00:00,-1280.2601399771897
2024-11-05 15:00:00+00:00,-1281.6114625883417
2024-11-05 16:00:00+00:00,-1304.544512404288
2024-11-05 17:00:00+00:00,-1288.7243481064909
2024-11-05 18:00:00+00:00,-1287.722490490866
2024-11-05 19:00:00+00:00,-1283.3083734907345
2024-11-05 20:00:00+00:00,-1279.60830812107
2024-11-06 14:00:00+00:00,-1430.8151870846905
2024-11-06 15:00:00+00:00,-1424.5644296062915
2024-11-06 16:00:00+00:00,-1390.3296267073358
2024-11-06 17:00:00+00:00,-1381.7510794966938
2024-11-06 18:00:00+00:00,-1378.9813846555683
2024-11-06 19:00:00+00:00,-1368.6732650323183
2024-11-06 20:00:00+00:00,-1344.4135537786055
2024-11-07 14:00:00+00:00,-1288.0202188345706
2024-11-07 15:00:00+00:00,-1305.4355382064675
2024-11-07 16:00:00+00:00,-1313.6057165875454
2024-11-07 17:00:00+00:00,-1321.940655323679
2024-11-07 18:00:00+00:00,-1322.4133899377466
2024-11-07 19:00:00+00:00,-1304.1623831705988
2024-11-07 20:00:00+00:00,-1302.7328929841628
2024-11-08 14:00:00+00:00,-1683.9312948376564
2024-11-08 15:00:00+00:00,-1737.4309663148583
2024-11-08 16:00:00+00:00,-1742.2823269671694
2024-11-08 17:00:00+00:00,-1768.759219958715
2024-11-08 18:00:00+00:00,-1764.055016815823
2024-11-08 19:00:00+00:00,-1763.4140147482046
2024-11-08 20:00:00+00:00,-1755.3955769621662
2024-11-11 14:00:00+00:00,-1786.6280745523577
2024-11-11 15:00:00+00:00,-1765.06110927162
2024-11-11 16:00:00+00:00,-1723.846398564202
2024-11-11 17:00:00+00:00,-1731.625598273421
2024-11-11 18:00:00+00:00,-1744.0561869071132
2024-11-11 19:00:00+00:00,-1743.4400031001442
2024-11-11 20:00:00+00:00,-1735.3066882392015
2024-11-12 14:00:00+00:00,-1879.8611795422698
2024-11-12 15:00:00+00:00,-1913.7792833398544
2024-11-12 16:00:00+00:00,-1906.203117201745
2024-11-12 17:00:00+00:00,-1907.9204203664285
2024-11-12 18:00:00+00:00,-1872.9317944941156
2024-11-12 19:00:00+00:00,-1879.6010555097573
2024-11-12 20:00:00+00:00,-1889.962000821334
2024-11-13 14:00:00+00:00,-1913.6028555648666
2024-11-13 15:00:00+00:00,-1890.703173640468
2024-11-13 16:00:00+00:00,-1849.1388295497527
2024-11-13 17:00:00+00:00,-1831.5196061450617
2024-11-13 18:00:00+00:00,-1823.2158892903208
2024-11-13 19:00:00+00:00,-1823.5822066193923
2024-11-13 20:00:00+00:00,-1833.4268361708987
2024-11-14 14:00:00+00:00,-1764.4401298605017
2024-11-14 15:00:00+00:00,-1755.8309645632964
2024-11-14 16:00:00+00:00,-1744.4264365411407
2024-11-14 17:00:00+00:00,-1753.5426449143315
2024-11-14 18:00:00+00:00,-1737.8387973202607
2024-11-14 19:00:00+00:00,-1755.7119209943987
2024-11-14 20:00:00+00:00,-1754.4710607603006
2024-11-15 14:00:00+00:00,-1748.6437189610388
2024-11-15 15:00:00+00:00,-1755.9952895112926
2024-11-15 16:00:00+00:00,-1770.028786627659
2024-11-15 17:00:00+00:00,-1768.1924829249301
2024-11-15 18:00:00+00:00,-1759.630305485536
2024-11-15 19:00:00+00:00,-1762.1627058013053
2024-11-15 20:00:00+00:00,-1754.1589858085629
2024-11-18 14:00:00+00:00,-1717.462686315932
2024-11-18 15:00:00+00:00,-1719.515645692272
2024-11-18 16:00:00+00:00,-1718.5868604099117
2024-11-18 17:00:00+00:00,-1709.6515102725664
2024-11-18 18:00:00+00:00,-1705.1261241483176
2024-11-18 19:00:00+00:00,-1708.3092562867216
2024-11-18 20:00:00+00:00,-1707.5638143870915
2024-11-19 14:00:00+00:00,-1778.599210993334
2024-11-19 15:00:00+00:00,-1768.8879515277208
2024-11-19 16:00:00+00:00,-1770.5160821171607
2024-11-19 17:00:00+00:00,-1776.008982830653
2024-11-19 18:00:00+00:00,-1769.3957847274683
2024-11-19 19:00:00+00:00,-1754.7625750619763
2024-11-19 20:00:00+00:00,-1746.0216145550557
2024-11-20 14:00:00+00:00,-1785.1401482124274
2024-11-20 15:00:00+00:00,-1799.7727148165172
2024-11-20 16:00:00+00:00,-1785.9555365982217
2024-11-20 17:00:00+00:00,-1775.6741196051714
2024-11-20 18:00:00+00:00,-1774.538659681457
2024-11-20 19:00:00+00:00,-1780.448531389332
2024-11-20 20:00:00+00:00,-1770.4454925695936
2024-11-21 14:00:00+00:00,-1744.083172573882
2024-11-21 15:00:00+00:00,-1725.8784507939051
2024-11-21 16:00:00+00:00,-1729.5347110291286
2024-11-21 17:00:00+00:00,-1700.2051743842787
2024-11-21 18:00:00+00:00,-1686.5298488122
2024-11-21 19:00:00+00:00,-1679.0425001801966
2024-11-21 20:00:00+00:00,-1663.4863366192005
2024-11-22 14:00:00+00:00,-1678.4509334158543
2024-11-22 15:00:00+00:00,-1681.2578728528154
2024-11-22 16:00:00+00:00,-1669.1436282513562
2024-11-22 17:00:00+00:00,-1656.7882350212667
2024-11-22 18:00:00+00:00,-1655.9451913869239
2024-11-22 19:00:00+00:00,-1648.705442920634
2024-11-22 20:00:00+00:00,-1639.3771847298663
2024-11-25 14:00:00+00:00,-1676.0107036841723
2024-11-25 15:00:00+00:00,-1697.3197315622765
2024-11-25 16:00:00+00:00,-1666.5060320856694
2024-11-25 17:00:00+00:00,-1655.0019372762295
2024-11-25 18:00:00+00:00,-1636.845445085199
2024-11-25 19:00:00+00:00,-1621.8850617683727
2024-11-25 20:00:00+00:00,-1629.5495856207103
2024-11-26 14:00:00+00:00,-1698.1752418130714
2024-11-26 15:00:00+00:00,-1705.2072723403735
2024-11-26 16:00:00+00:00,-1724.4631088948265
2024-11-26 17:00:00+00:00,-1711.4266395496104
2024-11-26 18:00:00+00:00,-1735.8815710577708
2024-11-26 19:00:00+00:00,-1725.481089692247
2024-11-26 20:00:00+00:00,-1713.469161683059
2024-11-27 14:00:00+00:00,-1704.4261940309016
2024-11-27 15:00:00+00:00,-1686.692239168663
2024-11-27 16:00:00+00:00,-1693.2345109487383
2024-11-27 17:00:00+00:00,-1689.2426618469788
2024-11-27 18:00:00+00:00,-1678.9050733629365
2024-11-27 19:00:00+00:00,-1684.0977419254857
2024-11-27 20:00:00+00:00,-1688.1377325873016
2024-11-29 14:00:00+00:00,-1678.0055210390758
2024-11-29 15:00:00+00:00,-1655.738841014868
2024-11-29 16:00:00+00:00,-1668.7481891714156
2024-12-02 14:00:00+00:00,-1725.5581841777534
2024-12-02 15:00:00+00:00,-1696.0705033171216
2024-12-02 16:00:00+00:00,-1686.438315959399
2024-12-02 17:00:00+00:00,-1685.8103682372168
2024-12-02 18:00:00+00:00,-1688.5292490833233
2024-12-02 19:00:00+00:00,-1678.322178907033
2024-12-02 20:00:00+00:00,-1679.2676481351684
2024-12-03 14:00:00+00:00,-1598.1899417076913
2024-12-03 15:00:00+00:00,-1603.459962984506
2024-12-03 16:00:00+00:00,-1592.3659906385778
2024-12-03 17:00:00+00:00,-1597.486350259933
2024-12-03 18:00:00+00:00,-1598.2317921595618
2024-12-03 19:00:00+00:00,-1576.0670919520855
2024-12-03 20:00:00+00:00,-1597.1425482634934
2024-12-04 14:00:00+00:00,-1555.6650551876055
2024-12-04 15:00:00+00:00,-1571.7238783352466
2024-12-04 16:00:00+00:00,-1577.5909053870537
2024-12-04 17:00:00+00:00,-1601.902399002819
2024-12-04 18:00:00+00:00,-1601.023979393504
2024-12-04 19:00:00+00:00,-1613.635619951819
2024-12-04 20:00:00+00:00,-1610.0064809052612
2024-12-05 14:00:00+00:00,-1667.746869379954
2024-12-05 15:00:00+00:00,-1651.5881053767373
2024-12-05 16:00:00+00:00,-1635.698003567025
2024-12-05 17:00:00+00:00,-1634.8055970150951
2024-12-05 18:00:00+00:00,-1623.1615584123142
2024-12-05 19:00:00+00:00,-1617.3023403697505
2024-12-05 20:00:00+00:00,-1617.9559029200022
2024-12-06 14:00:00+00:00,-1643.1296700234705
2024-12-06 15:00:00+00:00,-1641.0226366575644
2024-12-06 16:00:00+00:00,-1653.952520330015
2024-12-06 17:00:00+00:00,-1649.2511581087026
2024-12-06 18:00:00+00:00,-1651.6237417865793
2024-12-06 19:00:00+00:00,-1644.1914559553327
2024-12-06 20:00:00+00:00,-1662.339578373142
2024-12-09 14:00:00+00:00,-1340.486732267978
2024-12-09 15:00:00+00:00,-1382.6776748075417
2024-12-09 16:00:00+00:00,-1367.6090420249916
2024-12-09 17:00:00+00:00,-1397.8127291986605
2024-12-09 18:00:00+00:00,-1387.6343798244716
2024-12-09 19:00:00+00:00,-1384.9530426975725
2024-12-09 20:00:00+00:00,-1377.494938324576
2024-12-10 14:00:00+00:00,-1400.661159372138
2024-12-10 15:00:00+00:00,-1362.8906590823667
2024-12-10 16:00:00+00:00,-1371.323252954067
2024-12-10 17:00:00+00:00,-1349.9398223836472
2024-12-10 18:00:00+00:00,-1339.5038500562366
2024-12-10 19:00:00+00:00,-1333.496925040783
2024-12-10 20:00:00+00:00,-1346.2333419233328
2024-12-11 14:00:00+00:00,-1367.5154090416663
2024-12-11 15:00:00+00:00,-1346.2959540738868
2024-12-11 16:00:00+00:00,-1357.7850170849063
2024-12-11 17:00:00+00:00,-1332.2744794465907
2024-12-11 18:00:00+00:00,-1334.944003705601
2024-12-11 19:00:00+00:00,-1314.4907196752822
2024-12-11 20:00:00+00:00,-1322.6049020450794
2024-12-12 14:00:00+00:00,-1334.441411365227
2024-12-12 15:00:00+00:00,-1329.5594193590077
2024-12-12 16:00:00+00:00,-1313.5559116784784
2024-12-12 17:00:00+00:00,-1323.002609643313
2024-12-12 18:00:00+00:00,-1323.0256857399224
2024-12-12 19:00:00+00:00,-1317.5870274037634
2024-12-12 20:00:00+00:00,-1335.2853229163456
2024-12-13 14:00:00+00:00,-1411.0534720130624
2024-12-13 15:00:00+00:00,-1376.6592096815925
2024-12-13 16:00:00+00:00,-1372.9003484573977
2024-12-13 17:00:00+00:00,-1367.6214339504552
2024-12-13 18:00:00+00:00,-1381.3595400608588
2024-12-13 19:00:00+00:00,-1364.11412394879
2024-12-13 20:00:00+00:00,-1376.7289357748853
2024-12-16 14:00:00+00:00,-1492.4265694465032
2024-12-16 15:00:00+00:00,-1514.266443061424
2024-12-16 16:00:00+00:00,-1512.7965122884352
2024-12-16 17:00:00+00:00,-1513.9061255069803
2024-12-16 18:00:00+00:00,-1524.192267791161
2024-12-16 19:00:00+00:00,-1522.3476499158794
2024-12-16 20:00:00+00:00,-1540.5037497307026
2024-12-17 14:00:00+00:00,-1472.0963407673235
2024-12-17 15:00:00+00:00,-1482.3906288362882
2024-12-17 16:00:00+00:00,-1501.1232564898173
2024-12-17 17:00:00+00:00,-1482.6904573105169
2024-12-17 18:00:00+00:00,-1475.6401839429234
2024-12-17 19:00:00+00:00,-1477.709827265038
2024-12-17 20:00:00+00:00,-1481.7577953238685
2024-12-18 14:00:00+00:00,-1448.1503186363952
2024-12-18 15:00:00+00:00,-1452.1599888617213
2024-12-18 16:00:00+00:00,-1435.019488545219
2024-12-18 17:00:00+00:00,-1442.12582482527
2024-12-18 18:00:00+00:00,-1469.7354071319712
2024-12-18 19:00:00+00:00,-1491.7605461513408
2024-12-18 20:00:00+00:00,-1516.3300177894644
2024-12-19 14:00:00+00:00,-1509.7212571545458
2024-12-19 15:00:00+00:00,-1514.181302359458
2024-12-19 16:00:00+00:00,-1495.725150081968
2024-12-19 17:00:00+00:00,-1508.2887164253461
2024-12-19 18:00:00+00:00,-1485.8764754384047
2024-12-19 19:00:00+00:00,-1504.540969216953
2024-12-19 20:00:00+00:00,-1511.2206561749797
2024-12-20 14:00:00+00:00,-1523.2535372104383
2024-12-20 15:00:00+00:00,-1498.9858487291147
2024-12-20 16:00:00+00:00,-1494.9504639233317
2024-12-20 17:00:00+00:00,-1484.731202870201
2024-12-20 18:00:00+00:00,-1484.4315427837416
2024-12-20 19:00:00+00:00,-1494.6382205838245
2024-12-20 20:00:00+00:00,-1489.5701486572336
2024-12-23 14:00:00+00:00,-1509.8067214132732
2024-12-23 15:00:00+00:00,-1500.0809240120402
2024-12-23 16:00:00+00:00,-1484.852091189641
2024-12-23 17:00:00+00:00,-1471.493278037566
2024-12-23 18:00:00+00:00,-1484.7051546019115
2024-12-23 19:00:00+00:00,-1482.6697053328692
2024-12-23 20:00:00+00:00,-1476.1485549668328
2024-12-24 14:00:00+00:00,-1466.6390037412705
2024-12-24 15:00:00+00:00,-1477.295805157421
2024-12-24 16:00:00+00:00,-1481.757772384052
2024-12-26 14:00:00+00:00,-1476.535825322174
2024-12-26 15:00:00+00:00,-1435.5379942768045
2024-12-26 16:00:00+00:00,-1442.009508121543
2024-12-26 17:00:00+00:00,-1456.6217647607662
2024-12-26 18:00:00+00:00,-1470.2688288081274
2024-12-26 19:00:00+00:00,-1475.5932118973717
2024-12-26 20:00:00+00:00,-1467.5700077561908
2024-12-27 14:00:00+00:00,-1442.6045592139658
2024-12-27 15:00:00+00:00,-1428.0231320799276
2024-12-27 16:00:00+00:00,-1454.8955866595513
2024-12-27 17:00:00+00:00,-1445.404883442159
2024-12-27 18:00:00+00:00,-1444.5981127795126
2024-12-27 19:00:00+00:00,-1440.1419746487593
2024-12-27 20:00:00+00:00,-1445.602987818442
2024-12-30 14:00:00+00:00,-1441.7472267783673
2024-12-30 15:00:00+00:00,-1433.5160327934193
2024-12-30 16:00:00+00:00,-1422.4479630984254
2024-12-30 17:00:00+00:00,-1420.660783760596
2024-12-30 18:00:00+00:00,-1414.3788044008031
2024-12-30 19:00:00+00:00,-1404.8437028567719
2024-12-30 20:00:00+00:00,-1422.3160355387029
2024-12-31 14:00:00+00:00,-1364.9105970637356
2024-12-31 15:00:00+00:00,-1373.5767545432598
2024-12-31 16:00:00+00:00,-1385.2232697559848
2024-12-31 17:00:00+00:00,-1373.8163179257117
2024-12-31 18:00:00+00:00,-1385.5697071485654
2024-12-31 19:00:00+00:00,-1368.0795847492727
2024-12-31 20:00:00+00:00,-1368.5961244977814
2025-01-02 14:00:00+00:00,-1363.6112483116224
2025-01-02 15:00:00+00:00,-1362.3849260131426
2025-01-02 16:00:00+00:00,-1345.7377322612772
2025-01-02 17:00:00+00:00,-1348.1492555581137
2025-01-02 18:00:00+00:00,-1360.6420639661535
2025-01-02 19:00:00+00:00,-1343.0583315233514
2025-01-02 20:00:00+00:00,-1338.82914315213
2025-01-03 14:00:00+00:00,-1267.5357685235301
2025-01-03 15:00:00+00:00,-1286.1170895014611
2025-01-03 16:00:00+00:00,-1257.9745074889156
2025-01-03 17:00:00+00:00,-1263.2782517264154
2025-01-03 18:00:00+00:00,-1282.2443419803953
2025-01-03 19:00:00+00:00,-1271.5168553513095
2025-01-03 20:00:00+00:00,-1271.0714659143466
2025-01-06 14:00:00+00:00,-1166.0588749951137
2025-01-06 15:00:00+00:00,-1166.8546825677895
2025-01-06 16:00:00+00:00,-1156.6230066493806
2025-01-06 17:00:00+00:00,-1178.5682802505441
2025-01-06 18:00:00+00:00,-1157.418253458078
2025-01-06 19:00:00+00:00,-1163.8021570339347
2025-01-06 20:00:00+00:00,-1152.7791110111136
2025-01-07 14:00:00+00:00,-1069.037045570188
2025-01-07 15:00:00+00:00,-1069.037045570188
2025-01-07 16:00:00+00:00,-1069.037045570188
2025-01-07 17:00:00+00:00,-1069.037045570188
2025-01-07 18:00:00+00:00,-1069.037045570188
2025-01-07 19:00:00+00:00,-1069.037045570188
2025-01-07 20:00:00+00:00,-1069.037045570188
2025-01-08 14:00:00+00:00,-1069.037045570188
2025-01-08 15:00:00+00:00,-1069.037045570188
2025-01-08 16:00:00+00:00,-1069.037045570188
2025-01-08 17:00:00+00:00,-1069.037045570188
2025-01-08 18:00:00+00:00,-1069.037045570188
2025-01-08 19:00:00+00:00,-1069.037045570188
2025-01-08 20:00:00+00:00,-1069.037045570188
2025-01-10 14:00:00+00:00,-1069.037045570188
2025-01-10 15:00:00+00:00,-1069.037045570188
2025-01-10 16:00:00+00:00,-1069.037045570188
2025-01-10 17:00:00+00:00,-1069.037045570188
2025-01-10 18:00:00+00:00,-1069.037045570188
2025-01-10 19:00:00+00:00,-1069.037045570188
2025-01-10 20:00:00+00:00,-1069.037045570188
2025-01-13 14:00:00+00:00,-1069.037045570188
2025-01-13 15:00:00+00:00,-1069.037045570188
2025-01-13 16:00:00+00:00,-1069.037045570188
2025-01-13 17:00:00+00:00,-1069.037045570188
2025-01-13 18:00:00+00:00,-1069.037045570188
2025-01-13 19:00:00+00:00,-1069.037045570188
2025-01-13 20:00:00+00:00,-1069.037045570188
2025-01-14 14:00:00+00:00,-1069.037045570188
2025-01-14 15:00:00+00:00,-1069.037045570188
2025-01-14 16:00:00+00:00,-1069.037045570188
2025-01-14 17:00:00+00:00,-1069.037045570188
2025-01-14 18:00:00+00:00,-1069.037045570188
2025-01-14 19:00:00+00:00,-1069.037045570188
2025-01-14 20:00:00+00:00,-1069.037045570188
2025-01-15 14:00:00+00:00,-1069.037045570188
2025-01-15 15:00:00+00:00,-1069.037045570188
2025-01-15 16:00:00+00:00,-1069.037045570188
2025-01-15 17:00:00+00:00,-1069.037045570188
2025-01-15 18:00:00+00:00,-1069.037045570188
2025-01-15 19:00:00+00:00,-1069.037045570188
2025-01-15 20:00:00+00:00,-1069.037045570188
2025-01-16 14:00:00+00:00,-1069.037045570188
2025-01-16 15:00:00+00:00,-1069.037045570188
2025-01-16 16:00:00+00:00,-1069.037045570188
2025-01-16 17:00:00+00:00,-1069.037045570188
2025-01-16 18:00:00+00:00,-1069.037045570188
2025-01-16 19:00:00+00:00,-1069.037045570188
2025-01-16 20:00:00+00:00,-1069.037045570188
2025-01-17 14:00:00+00:00,-1069.037045570188
2025-01-17 15:00:00+00:00,-1069.037045570188
2025-01-17 16:00:00+00:00,-1069.037045570188
2025-01-17 17:00:00+00:00,-1069.037045570188
2025-01-17 18:00:00+00:00,-1069.037045570188
2025-01-17 19:00:00+00:00,-1069.037045570188
2025-01-17 20:00:00+00:00,-1069.037045570188
2025-01-21 14:00:00+00:00,-1069.037045570188
2025-01-21 15:00:00+00:00,-1069.037045570188
2025-01-21 16:00:00+00:00,-1069.037045570188
2025-01-21 17:00:00+00:00,-1069.037045570188
2025-01-21 18:00:00+00:00,-1069.037045570188
2025-01-21 19:00:00+00:00,-1069.037045570188
2025-01-21 20:00:00+00:00,-1069.037045570188
2025-01-22 14:00:00+00:00,-1069.037045570188
2025-01-22 15:00:00+00:00,-1069.037045570188
2025-01-22 16:00:00+00:00,-1069.037045570188
2025-01-22 17:00:00+00:00,-1069.037045570188
2025-01-22 18:00:00+00:00,-1069.037045570188
2025-01-22 19:00:00+00:00,-1069.037045570188
2025-01-22 20:00:00+00:00,-1069.037045570188
2025-01-23 14:00:00+00:00,-1069.037045570188
2025-01-23 15:00:00+00:00,-1069.037045570188
2025-01-23 16:00:00+00:00,-1069.037045570188
2025-01-23 17:00:00+00:00,-1069.037045570188
2025-01-23 18:00:00+00:00,-1069.037045570188
2025-01-23 19:00:00+00:00,-1069.037045570188
2025-01-23 20:00:00+00:00,-1069.037045570188
2025-01-24 14:00:00+00:00,-1069.037045570188
2025-01-24 15:00:00+00:00,-1069.037045570188
2025-01-24 16:00:00+00:00,-1069.037045570188
2025-01-24 17:00:00+00:00,-1069.037045570188
2025-01-24 18:00:00+00:00,-1069.037045570188
2025-01-24 19:00:00+00:00,-1069.037045570188
2025-01-24 20:00:00+00:00,-1069.037045570188
2025-01-27 14:00:00+00:00,-1069.037045570188
2025-01-27 15:00:00+00:00,-1069.037045570188
2025-01-27 16:00:00+00:00,-1069.037045570188
2025-01-27 17:00:00+00:00,-1069.037045570188
2025-01-27 18:00:00+00:00,-1069.037045570188
2025-01-27 19:00:00+00:00,-1069.037045570188
2025-01-27 20:00:00+00:00,-1069.037045570188
2025-01-28 14:00:00+00:00,-1069.037045570188
2025-01-28 15:00:00+00:00,-1069.037045570188
2025-01-28 16:00:00+00:00,-1069.037045570188
2025-01-28 17:00:00+00:00,-1069.037045570188
2025-01-28 18:00:00+00:00,-1069.037045570188
2025-01-28 19:00:00+00:00,-1069.037045570188
2025-01-28 20:00:00+00:00,-1069.037045570188
2025-01-29 14:00:00+00:00,-1069.037045570188
2025-01-29 15:00:00+00:00,-1069.037045570188
2025-01-29 16:00:00+00:00,-1069.037045570188
2025-01-29 17:00:00+00:00,-1069.037045570188
2025-01-29 18:00:00+00:00,-1069.037045570188
2025-01-29 19:00:00+00:00,-1069.037045570188
2025-01-29 20:00:00+00:00,-1069.037045570188
2025-01-30 14:00:00+00:00,-1069.037045570188
2025-01-30 15:00:00+00:00,-1069.037045570188
2025-01-30 16:00:00+00:00,-1069.037045570188
2025-01-30 17:00:00+00:00,-1069.037045570188
2025-01-30 18:00:00+00:00,-1069.037045570188
2025-01-30 19:00:00+00:00,-1069.037045570188
2025-01-30 20:00:00+00:00,-1069.037045570188
2025-01-31 14:00:00+00:00,-1069.037045570188
2025-01-31 15:00:00+00:00,-1069.037045570188
2025-01-31 16:00:00+00:00,-1069.037045570188
2025-01-31 17:00:00+00:00,-1069.037045570188
2025-01-31 18:00:00+00:00,-1069.037045570188
2025-01-31 19:00:00+00:00,-1069.037045570188
2025-01-31 20:00:00+00:00,-1069.037045570188
2025-02-03 14:00:00+00:00,-1069.037045570188
2025-02-03 15:00:00+00:00,-1069.037045570188
2025-02-03 16:00:00+00:00,-1069.037045570188
2025-02-03 17:00:00+00:00,-1069.037045570188
2025-02-03 18:00:00+00:00,-1069.037045570188
2025-02-03 19:00:00+00:00,-1069.037045570188
2025-02-03 20:00:00+00:00,-1069.037045570188
2025-02-04 14:00:00+00:00,-1069.037045570188
2025-02-04 15:00:00+00:00,-1069.037045570188
2025-02-04 16:00:00+00:00,-1069.037045570188
2025-02-04 17:00:00+00:00,-1069.037045570188
2025-02-04 18:00:00+00:00,-1069.037045570188
2025-02-04 19:00:00+00:00,-1069.037045570188
2025-02-04 20:00:00+00:00,-1069.037045570188
2025-02-05 14:00:00+00:00,-1069.037045570188
2025-02-05 15:00:00+00:00,-1069.037045570188
2025-02-05 16:00:00+00:00,-1069.037045570188
2025-02-05 17:00:00+00:00,-1069.037045570188
2025-02-05 18:00:00+00:00,-1069.037045570188
2025-02-05 19:00:00+00:00,-1069.037045570188
2025-02-05 20:00:00+00:00,-1069.037045570188
2025-02-06 14:00:00+00:00,-1069.037045570188
2025-02-06 15:00:00+00:00,-1069.037045570188
2025-02-06 16:00:00+00:00,-1069.037045570188
2025-02-06 17:00:00+00:00,-1069.037045570188
2025-02-06 18:00:00+00:00,-1069.037045570188
2025-02-06 19:00:00+00:00,-1069.037045570188
2025-02-06 20:00:00+00:00,-1069.037045570188
2025-02-07 14:00:00+00:00,-1069.037045570188
2025-02-07 15:00:00+00:00,-1069.037045570188
2025-02-07 16:00:00+00:00,-1069.037045570188
2025-02-07 17:00:00+00:00,-1069.037045570188
2025-02-07 18:00:00+00:00,-1069.037045570188
2025-02-07 19:00:00+00:00,-1069.037045570188
2025-02-07 20:00:00+00:00,-1069.037045570188
2025-02-10 14:00:00+00:00,-1069.037045570188
2025-02-10 15:00:00+00:00,-1069.037045570188
2025-02-10 16:00:00+00:00,-1069.037045570188
2025-02-10 17:00:00+00:00,-1069.037045570188
2025-02-10 18:00:00+00:00,-1069.037045570188
2025-02-10 19:00:00+00:00,-1069.037045570188
2025-02-10 20:00:00+00:00,-1069.037045570188
2025-02-11 14:00:00+00:00,-1069.037045570188
2025-02-11 15:00:00+00:00,-1069.037045570188
2025-02-11 16:00:00+00:00,-1069.037045570188
2025-02-11 17:00:00+00:00,-1069.037045570188
2025-02-11 18:00:00+00:00,-1069.037045570188
2025-02-11 19:00:00+00:00,-1069.037045570188
2025-02-11 20:00:00+00:00,-1069.037045570188
2025-02-12 14:00:00+00:00,-1069.037045570188
2025-02-12 15:00:00+00:00,-1069.037045570188
2025-02-12 16:00:00+00:00,-1069.037045570188
2025-02-12 17:00:00+00:00,-1069.037045570188
2025-02-12 18:00:00+00:00,-1069.037045570188
2025-02-12 19:00:00+00:00,-1069.037045570188
2025-02-12 20:00:00+00:00,-1069.037045570188
2025-02-13 14:00:00+00:00,-1069.037045570188
2025-02-13 15:00:00+00:00,-1069.037045570188
2025-02-13 16:00:00+00:00,-1069.037045570188
2025-02-13 17:00:00+00:00,-1069.037045570188
2025-02-13 18:00:00+00:00,-1069.037045570188
2025-02-13 19:00:00+00:00,-1069.037045570188
2025-02-13 20:00:00+00:00,-1069.037045570188
2025-02-14 14:00:00+00:00,-1069.037045570188
2025-02-14 15:00:00+00:00,-1069.037045570188
2025-02-14 16:00:00+00:00,-1069.037045570188
2025-02-14 17:00:00+00:00,-1069.037045570188
2025-02-14 18:00:00+00:00,-1069.037045570188
2025-02-14 19:00:00+00:00,-1069.037045570188
2025-02-14 20:00:00+00:00,-1069.037045570188
2025-02-18 14:00:00+00:00,-1069.037045570188
2025-02-18 15:00:00+00:00,-1069.037045570188
2025-02-18 16:00:00+00:00,-1069.037045570188
2025-02-18 17:00:00+00:00,-1069.037045570188
2025-02-18 18:00:00+00:00,-1069.037045570188
2025-02-18 19:00:00+00:00,-1069.037045570188
2025-02-18 20:00:00+00:00,-1069.037045570188
2025-02-19 14:00:00+00:00,-1069.037045570188
2025-02-19 15:00:00+00:00,-1069.037045570188
2025-02-19 16:00:00+00:00,-1069.037045570188
2025-02-19 17:00:00+00:00,-1069.037045570188
2025-02-19 18:00:00+00:00,-1069.037045570188
2025-02-19 19:00:00+00:00,-1069.037045570188
2025-02-19 20:00:00+00:00,-1069.037045570188
2025-02-20 14:00:00+00:00,-1069.037045570188
2025-02-20 15:00:00+00:00,-1069.037045570188
2025-02-20 16:00:00+00:00,-1069.037045570188
2025-02-20 17:00:00+00:00,-1069.037045570188
2025-02-20 18:00:00+00:00,-1069.037045570188
2025-02-20 19:00:00+00:00,-1069.037045570188
2025-02-20 20:00:00+00:00,-1069.037045570188
2025-02-21 14:00:00+00:00,-1069.037045570188
2025-02-21 15:00:00+00:00,-1069.037045570188
2025-02-21 16:00:00+00:00,-1069.037045570188
2025-02-21 17:00:00+00:00,-1069.037045570188
2025-02-21 18:00:00+00:00,-1069.037045570188
2025-02-21 19:00:00+00:00,-1069.037045570188
2025-02-21 20:00:00+00:00,-1069.037045570188
2025-02-24 14:00:00+00:00,-1069.037045570188
2025-02-24 15:00:00+00:00,-1069.037045570188
2025-02-24 16:00:00+00:00,-1069.037045570188
2025-02-24 17:00:00+00:00,-1069.037045570188
2025-02-24 18:00:00+00:00,-1069.037045570188
2025-02-24 19:00:00+00:00,-1069.037045570188
2025-02-24 20:00:00+00:00,-1069.037045570188
2025-02-25 14:00:00+00:00,-1069.037045570188
2025-02-25 15:00:00+00:00,-1069.037045570188
2025-02-25 16:00:00+00:00,-1069.037045570188
2025-02-25 17:00:00+00:00,-1069.037045570188
2025-02-25 18:00:00+00:00,-1069.037045570188
2025-02-25 19:00:00+00:00,-1069.037045570188
2025-02-25 20:00:00+00:00,-1069.037045570188
2025-02-26 14:00:00+00:00,-1069.037045570188
2025-02-26 15:00:00+00:00,-1069.037045570188
2025-02-26 16:00:00+00:00,-1069.037045570188
2025-02-26 17:00:00+00:00,-1069.037045570188
2025-02-26 18:00:00+00:00,-1069.037045570188
2025-02-26 19:00:00+00:00,-1069.037045570188
2025-02-26 20:00:00+00:00,-1069.037045570188
2025-02-27 14:00:00+00:00,-1069.037045570188
2025-02-27 15:00:00+00:00,-1069.037045570188
2025-02-27 16:00:00+00:00,-1069.037045570188
2025-02-27 17:00:00+00:00,-1069.037045570188
2025-02-27 18:00:00+00:00,-1069.037045570188
2025-02-27 19:00:00+00:00,-1069.037045570188
2025-02-27 20:00:00+00:00,-1069.037045570188
2025-02-28 14:00:00+00:00,-1069.037045570188
2025-02-28 15:00:00+00:00,-1069.037045570188
2025-02-28 16:00:00+00:00,-1069.037045570188
2025-02-28 17:00:00+00:00,-1069.037045570188
2025-02-28 18:00:00+00:00,-1069.037045570188
2025-02-28 19:00:00+00:00,-1069.037045570188
2025-02-28 20:00:00+00:00,-1069.037045570188
2025-03-03 14:00:00+00:00,-1069.037045570188
2025-03-03 15:00:00+00:00,-1069.037045570188
2025-03-03 16:00:00+00:00,-1069.037045570188
2025-03-03 17:00:00+00:00,-1069.037045570188
2025-03-03 18:00:00+00:00,-1069.037045570188
2025-03-03 19:00:00+00:00,-1069.037045570188
2025-03-03 20:00:00+00:00,-1069.037045570188
2025-03-04 14:00:00+00:00,-1069.037045570188
2025-03-04 15:00:00+00:00,-1069.037045570188
2025-03-04 16:00:00+00:00,-1069.037045570188
2025-03-04 17:00:00+00:00,-1069.037045570188
2025-03-04 18:00:00+00:00,-1069.037045570188
2025-03-04 19:00:00+00:00,-1069.037045570188
2025-03-04 20:00:00+00:00,-1069.037045570188
2025-03-05 14:00:00+00:00,-1069.037045570188
2025-03-05 15:00:00+00:00,-1069.037045570188
2025-03-05 16:00:00+00:00,-1069.037045570188
2025-03-05 17:00:00+00:00,-1069.037045570188
2025-03-05 18:00:00+00:00,-1069.037045570188
2025-03-05 19:00:00+00:00,-1069.037045570188
2025-03-05 20:00:00+00:00,-1069.037045570188
2025-03-06 14:00:00+00:00,-1069.037045570188
2025-03-06 15:00:00+00:00,-1069.037045570188
2025-03-06 16:00:00+00:00,-1069.037045570188
2025-03-06 17:00:00+00:00,-1069.037045570188
2025-03-06 18:00:00+00:00,-1069.037045570188
2025-03-06 19:00:00+00:00,-1069.037045570188
2025-03-06 20:00:00+00:00,-1069.037045570188
2025-03-07 14:00:00+00:00,-1069.037045570188
2025-03-07 15:00:00+00:00,-1069.037045570188
2025-03-07 16:00:00+00:00,-1069.037045570188
2025-03-07 17:00:00+00:00,-1069.037045570188
2025-03-07 18:00:00+00:00,-1069.037045570188
2025-03-07 19:00:00+00:00,-1069.037045570188
2025-03-07 20:00:00+00:00,-1069.037045570188
2025-03-10 13:00:00+00:00,-1069.037045570188
2025-03-10 14:00:00+00:00,-1069.037045570188
2025-03-10 15:00:00+00:00,-1069.037045570188
2025-03-10 16:00:00+00:00,-1069.037045570188
2025-03-10 17:00:00+00:00,-1069.037045570188
2025-03-10 18:00:00+00:00,-1069.037045570188
2025-03-10 19:00:00+00:00,-1069.037045570188
2025-03-11 13:00:00+00:00,-1069.037045570188
2025-03-11 14:00:00+00:00,-1069.037045570188
2025-03-11 15:00:00+00:00,-1069.037045570188
2025-03-11 16:00:00+00:00,-1069.037045570188
2025-03-11 17:00:00+00:00,-1069.037045570188
2025-03-11 18:00:00+00:00,-1069.037045570188
2025-03-11 19:00:00+00:00,-1069.037045570188
2025-03-12 13:00:00+00:00,-1069.037045570188
2025-03-12 14:00:00+00:00,-1069.037045570188
2025-03-12 15:00:00+00:00,-1069.037045570188
2025-03-12 16:00:00+00:00,-1069.037045570188
2025-03-12 17:00:00+00:00,-1069.037045570188
2025-03-12 18:00:00+00:00,-1069.037045570188
2025-03-12 19:00:00+00:00,-1069.037045570188
2025-03-13 13:00:00+00:00,-1069.037045570188
2025-03-13 14:00:00+00:00,-1069.037045570188
2025-03-13 15:00:00+00:00,-1069.037045570188
2025-03-13 16:00:00+00:00,-1069.037045570188
2025-03-13 17:00:00+00:00,-1069.037045570188
2025-03-13 18:00:00+00:00,-1069.037045570188
2025-03-13 19:00:00+00:00,-1069.037045570188
2025-03-14 13:00:00+00:00,-1069.037045570188
2025-03-14 14:00:00+00:00,-1069.037045570188
2025-03-14 15:00:00+00:00,-1069.037045570188
2025-03-14 16:00:00+00:00,-1069.037045570188
2025-03-14 17:00:00+00:00,-1069.037045570188
2025-03-14 18:00:00+00:00,-1069.037045570188
2025-03-14 19:00:00+00:00,-1069.037045570188
2025-03-17 13:00:00+00:00,-1069.037045570188
2025-03-17 14:00:00+00:00,-1069.037045570188
2025-03-17 15:00:00+00:00,-1069.037045570188
2025-03-17 16:00:00+00:00,-1069.037045570188
2025-03-17 17:00:00+00:00,-1069.037045570188
2025-03-17 18:00:00+00:00,-1069.037045570188
2025-03-17 19:00:00+00:00,-1069.037045570188
2025-03-18 13:00:00+00:00,-1069.037045570188
2025-03-18 14:00:00+00:00,-1069.037045570188
2025-03-18 15:00:00+00:00,-1069.037045570188
2025-03-18 16:00:00+00:00,-1069.037045570188
2025-03-18 17:00:00+00:00,-1069.037045570188
2025-03-18 18:00:00+00:00,-1069.037045570188
2025-03-18 19:00:00+00:00,-1069.037045570188
2025-03-19 13:00:00+00:00,-1069.037045570188
2025-03-19 14:00:00+00:00,-1069.037045570188
2025-03-19 15:00:00+00:00,-1069.037045570188
2025-03-19 16:00:00+00:00,-1069.037045570188
2025-03-19 17:00:00+00:00,-1069.037045570188
2025-03-19 18:00:00+00:00,-1069.037045570188
2025-03-19 19:00:00+00:00,-1069.037045570188
2025-03-20 13:00:00+00:00,-1069.037045570188
2025-03-20 14:00:00+00:00,-1069.037045570188
2025-03-20 15:00:00+00:00,-1069.037045570188
2025-03-20 16:00:00+00:00,-1069.037045570188
2025-03-20 17:00:00+00:00,-1069.037045570188
2025-03-20 18:00:00+00:00,-1069.037045570188
2025-03-20 19:00:00+00:00,-1069.037045570188
2025-03-21 13:00:00+00:00,-1069.037045570188
2025-03-21 14:00:00+00:00,-1069.037045570188
2025-03-21 15:00:00+00:00,-1069.037045570188
2025-03-21 16:00:00+00:00,-1069.037045570188
2025-03-21 17:00:00+00:00,-1069.037045570188
2025-03-21 18:00:00+00:00,-1069.037045570188
2025-03-21 19:00:00+00:00,-1069.037045570188
2025-03-24 13:00:00+00:00,-1069.037045570188
2025-03-24 14:00:00+00:00,-1069.037045570188
2025-03-24 15:00:00+00:00,-1069.037045570188
2025-03-24 16:00:00+00:00,-1069.037045570188
2025-03-24 17:00:00+00:00,-1069.037045570188
2025-03-24 18:00:00+00:00,-1069.037045570188
2025-03-24 19:00:00+00:00,-1069.037045570188
2025-03-25 13:00:00+00:00,-1069.037045570188
2025-03-25 14:00:00+00:00,-1069.037045570188
2025-03-25 15:00:00+00:00,-1069.037045570188
2025-03-25 16:00:00+00:00,-1069.037045570188
2025-03-25 17:00:00+00:00,-1069.037045570188
2025-03-25 18:00:00+00:00,-1069.037045570188
2025-03-25 19:00:00+00:00,-1069.037045570188
2025-03-26 13:00:00+00:00,-1069.037045570188
2025-03-26 14:00:00+00:00,-1069.037045570188
2025-03-26 15:00:00+00:00,-1069.037045570188
2025-03-26 16:00:00+00:00,-1069.037045570188
2025-03-26 17:00:00+00:00,-1069.037045570188
2025-03-26 18:00:00+00:00,-1069.037045570188
2025-03-26 19:00:00+00:00,-1069.037045570188
2025-03-27 13:00:00+00:00,-1069.037045570188
2025-03-27 14:00:00+00:00,-1069.037045570188
2025-03-27 15:00:00+00:00,-1069.037045570188
2025-03-27 16:00:00+00:00,-1069.037045570188
2025-03-27 17:00:00+00:00,-1069.037045570188
2025-03-27 18:00:00+00:00,-1069.037045570188
2025-03-27 19:00:00+00:00,-1069.037045570188
2025-03-28 13:00:00+00:00,-1069.037045570188
2025-03-28 14:00:00+00:00,-1069.037045570188
2025-03-28 15:00:00+00:00,-1069.037045570188
2025-03-28 16:00:00+00:00,-1069.037045570188
2025-03-28 17:00:00+00:00,-1069.037045570188
2025-03-28 18:00:00+00:00,-1069.037045570188
2025-03-28 19:00:00+00:00,-1069.037045570188
2025-03-31 13:00:00+00:00,-1069.037045570188
2025-03-31 14:00:00+00:00,-1069.037045570188
2025-03-31 15:00:00+00:00,-1069.037045570188
2025-03-31 16:00:00+00:00,-1069.037045570188
2025-03-31 17:00:00+00:00,-1069.037045570188
2025-03-31 18:00:00+00:00,-1069.037045570188
2025-03-31 19:00:00+00:00,-1069.037045570188
2025-04-01 13:00:00+00:00,-1069.037045570188
2025-04-01 14:00:00+00:00,-1069.037045570188
2025-04-01 15:00:00+00:00,-1069.037045570188
2025-04-01 16:00:00+00:00,-1069.037045570188
2025-04-01 17:00:00+00:00,-1069.037045570188
2025-04-01 18:00:00+00:00,-1069.037045570188
2025-04-01 19:00:00+00:00,-1069.037045570188
2025-04-02 13:00:00+00:00,-1069.037045570188
2025-04-02 14:00:00+00:00,-1069.037045570188
2025-04-02 15:00:00+00:00,-1069.037045570188
2025-04-02 16:00:00+00:00,-1069.037045570188
2025-04-02 17:00:00+00:00,-1069.037045570188
2025-04-02 18:00:00+00:00,-1069.037045570188
2025-04-02 19:00:00+00:00,-1069.037045570188
2025-04-03 13:00:00+00:00,-1069.037045570188
2025-04-03 14:00:00+00:00,-1069.037045570188
2025-04-03 15:00:00+00:00,-1069.037045570188
2025-04-03 16:00:00+00:00,-1069.037045570188
2025-04-03 17:00:00+00:00,-1069.037045570188
2025-04-03 18:00:00+00:00,-1069.037045570188
2025-04-03 19:00:00+00:00,-1069.037045570188
2025-04-04 13:00:00+00:00,-1069.037045570188
2025-04-04 14:00:00+00:00,-1069.037045570188
2025-04-04 15:00:00+00:00,-1069.037045570188
2025-04-04 16:00:00+00:00,-1069.037045570188
2025-04-04 17:00:00+00:00,-1069.037045570188
2025-04-04 18:00:00+00:00,-1069.037045570188
2025-04-04 19:00:00+00:00,-1069.037045570188
2025-04-07 13:00:00+00:00,-1069.037045570188
2025-04-07 14:00:00+00:00,-1069.037045570188
2025-04-07 15:00:00+00:00,-1069.037045570188
2025-04-07 16:00:00+00:00,-1069.037045570188
2025-04-07 17:00:00+00:00,-1069.037045570188
2025-04-07 18:00:00+00:00,-1069.037045570188
2025-04-07 19:00:00+00:00,-1069.037045570188
2025-04-08 13:00:00+00:00,-1069.037045570188
2025-04-08 14:00:00+00:00,-1069.037045570188
2025-04-08 15:00:00+00:00,-1069.037045570188
2025-04-08 16:00:00+00:00,-1069.037045570188
2025-04-08 17:00:00+00:00,-1069.037045570188
2025-04-08 18:00:00+00:00,-1069.037045570188
2025-04-08 19:00:00+00:00,-1069.037045570188
2025-04-09 13:00:00+00:00,-1324.6082821760995
2025-04-09 14:00:00+00:00,-1302.1747393985222
2025-04-09 15:00:00+00:00,-1261.5721845490432
2025-04-09 16:00:00+00:00,-990.4767495959404
2025-04-09 17:00:00+00:00,-807.6266234460074
2025-04-09 18:00:00+00:00,-776.1836753122001
2025-04-09 19:00:00+00:00,-806.7833578307095
2025-04-10 13:00:00+00:00,-880.6727163759302
2025-04-10 14:00:00+00:00,-957.6569164770659
2025-04-10 15:00:00+00:00,-1075.894808479201
2025-04-10 16:00:00+00:00,-992.0760127039504
2025-04-10 17:00:00+00:00,-949.6656358410057
2025-04-10 18:00:00+00:00,-980.3588068537659
2025-04-10 19:00:00+00:00,-1032.802784075767
2025-04-11 13:00:00+00:00,-1075.3944913243165
2025-04-11 14:00:00+00:00,-1123.9800950269735
2025-04-11 15:00:00+00:00,-1123.0732898139638
2025-04-11 16:00:00+00:00,-1100.5598874271839
2025-04-11 17:00:00+00:00,-1060.4422962039912
2025-04-11 18:00:00+00:00,-1024.2475960176505
2025-04-11 19:00:00+00:00,-1038.425633023032
2025-04-14 13:00:00+00:00,-911.7807740586366
2025-04-14 14:00:00+00:00,-908.7263412064465
2025-04-14 15:00:00+00:00,-951.5617821533891
2025-04-14 16:00:00+00:00,-913.6041272666561
2025-04-14 17:00:00+00:00,-901.945202266272
2025-04-14 18:00:00+00:00,-912.9758606922218
2025-04-14 19:00:00+00:00,-917.7510886543706
2025-04-15 13:00:00+00:00,-734.5445308247348
2025-04-15 14:00:00+00:00,-753.4597552117119
2025-04-15 15:00:00+00:00,-777.6685596400486
2025-04-15 16:00:00+00:00,-805.0951299489428
2025-04-15 17:00:00+00:00,-797.346543023543
2025-04-15 18:00:00+00:00,-786.1645634702709
2025-04-15 19:00:00+00:00,-825.8499330051516
2025-04-16 13:00:00+00:00,-668.4025011596312
2025-04-16 14:00:00+00:00,-615.5150409667111
2025-04-16 15:00:00+00:00,-674.1823024309763
2025-04-16 16:00:00+00:00,-653.5661826415062
2025-04-16 17:00:00+00:00,-709.7267808607977
2025-04-16 18:00:00+00:00,-761.5358443039895
2025-04-16 19:00:00+00:00,-720.0784487587159
2025-04-17 13:00:00+00:00,-585.951032311178
2025-04-17 14:00:00+00:00,-535.1034769817355
2025-04-17 15:00:00+00:00,-535.905466376115
2025-04-17 16:00:00+00:00,-562.2742071409087
2025-04-17 17:00:00+00:00,-555.0369434338178
2025-04-17 18:00:00+00:00,-584.6918650190585
2025-04-17 19:00:00+00:00,-592.1686226934676
2025-04-21 13:00:00+00:00,-710.4089782984775
2025-04-21 14:00:00+00:00,-712.9669029215164
2025-04-21 15:00:00+00:00,-692.1450900142045
2025-04-21 16:00:00+00:00,-662.4109364877887
2025-04-21 17:00:00+00:00,-654.5975011346619
2025-04-21 18:00:00+00:00,-658.8472211194751
2025-04-21 19:00:00+00:00,-623.6778032576204
2025-04-22 13:00:00+00:00,-489.82932644673537
2025-04-22 14:00:00+00:00,-489.82932644673537
2025-04-22 15:00:00+00:00,-489.82932644673537
2025-04-22 16:00:00+00:00,-489.82932644673537
2025-04-22 17:00:00+00:00,-489.82932644673537
2025-04-22 18:00:00+00:00,-489.82932644673537
2025-04-22 19:00:00+00:00,-489.82932644673537
2025-04-23 13:00:00+00:00,-489.82932644673537
2025-04-23 14:00:00+00:00,-489.82932644673537
2025-04-23 15:00:00+00:00,-489.82932644673537
2025-04-23 16:00:00+00:00,-489.82932644673537
2025-04-23 17:00:00+00:00,-489.82932644673537
2025-04-23 18:00:00+00:00,-489.82932644673537
2025-04-23 19:00:00+00:00,-489.82932644673537
2025-04-24 13:00:00+00:00,-489.82932644673537
2025-04-24 14:00:00+00:00,-489.82932644673537
2025-04-24 15:00:00+00:00,-489.82932644673537
2025-04-24 16:00:00+00:00,-489.82932644673537
2025-04-24 17:00:00+00:00,-489.82932644673537
2025-04-24 18:00:00+00:00,-489.82932644673537
2025-04-24 19:00:00+00:00,-489.82932644673537
2025-04-25 13:00:00+00:00,-489.82932644673537
2025-04-25 14:00:00+00:00,-489.82932644673537
2025-04-25 15:00:00+00:00,-489.82932644673537
2025-04-25 16:00:00+00:00,-489.82932644673537
2025-04-25 17:00:00+00:00,-489.82932644673537
2025-04-25 18:00:00+00:00,-489.82932644673537
2025-04-25 19:00:00+00:00,-489.82932644673537
2025-04-28 13:00:00+00:00,-489.82932644673537
2025-04-28 14:00:00+00:00,-489.82932644673537
2025-04-28 15:00:00+00:00,-489.82932644673537
2025-04-28 16:00:00+00:00,-489.82932644673537
2025-04-28 17:00:00+00:00,-489.82932644673537
2025-04-28 18:00:00+00:00,-489.82932644673537
2025-04-28 19:00:00+00:00,-489.82932644673537
2025-04-29 13:00:00+00:00,-489.82932644673537
2025-04-29 14:00:00+00:00,-489.82932644673537
2025-04-29 15:00:00+00:00,-489.82932644673537
2025-04-29 16:00:00+00:00,-489.82932644673537
2025-04-29 17:00:00+00:00,-489.82932644673537
2025-04-29 18:00:00+00:00,-489.82932644673537
2025-04-29 19:00:00+00:00,-489.82932644673537
2025-04-30 13:00:00+00:00,-489.82932644673537
2025-04-30 14:00:00+00:00,-489.82932644673537
2025-04-30 15:00:00+00:00,-489.82932644673537
2025-04-30 16:00:00+00:00,-489.82932644673537
2025-04-30 17:00:00+00:00,-489.82932644673537
2025-04-30 18:00:00+00:00,-489.82932644673537
2025-04-30 19:00:00+00:00,-489.82932644673537
2025-05-01 13:00:00+00:00,-489.82932644673537
2025-05-01 14:00:00+00:00,-489.82932644673537
2025-05-01 15:00:00+00:00,-489.82932644673537
2025-05-01 16:00:00+00:00,-489.82932644673537
2025-05-01 17:00:00+00:00,-489.82932644673537
2025-05-01 18:00:00+00:00,-489.82932644673537
2025-05-01 19:00:00+00:00,-489.82932644673537
2025-05-02 13:00:00+00:00,-489.82932644673537
2025-05-02 14:00:00+00:00,-489.82932644673537
2025-05-02 15:00:00+00:00,-489.82932644673537
2025-05-02 16:00:00+00:00,-489.82932644673537
2025-05-02 17:00:00+00:00,-489.82932644673537
2025-05-02 18:00:00+00:00,-489.82932644673537
2025-05-02 19:00:00+00:00,-489.82932644673537
2025-05-05 13:00:00+00:00,-489.82932644673537
2025-05-05 14:00:00+00:00,-489.82932644673537
2025-05-05 15:00:00+00:00,-489.82932644673537
2025-05-05 16:00:00+00:00,-489.82932644673537
2025-05-05 17:00:00+00:00,-489.82932644673537
2025-05-05 18:00:00+00:00,-489.82932644673537
2025-05-05 19:00:00+00:00,-489.82932644673537
2025-05-06 13:00:00+00:00,-489.82932644673537
2025-05-06 14:00:00+00:00,-489.82932644673537
2025-05-06 15:00:00+00:00,-489.82932644673537
2025-05-06 16:00:00+00:00,-489.82932644673537
2025-05-06 17:00:00+00:00,-489.82932644673537
2025-05-06 18:00:00+00:00,-489.82932644673537
2025-05-06 19:00:00+00:00,-489.82932644673537
2025-05-07 13:00:00+00:00,-489.82932644673537
2025-05-07 14:00:00+00:00,-489.82932644673537
2025-05-07 15:00:00+00:00,-489.82932644673537
2025-05-07 16:00:00+00:00,-489.82932644673537
2025-05-07 17:00:00+00:00,-489.82932644673537
2025-05-07 18:00:00+00:00,-489.82932644673537
2025-05-07 19:00:00+00:00,-489.82932644673537
2025-05-08 13:00:00+00:00,-489.82932644673537
2025-05-08 14:00:00+00:00,-489.82932644673537
2025-05-08 15:00:00+00:00,-489.82932644673537
2025-05-08 16:00:00+00:00,-489.82932644673537
2025-05-08 17:00:00+00:00,-489.82932644673537
2025-05-08 18:00:00+00:00,-489.82932644673537
2025-05-08 19:00:00+00:00,-489.82932644673537
2025-05-09 13:00:00+00:00,-489.82932644673537
2025-05-09 14:00:00+00:00,-489.82932644673537
2025-05-09 15:00:00+00:00,-489.82932644673537
2025-05-09 16:00:00+00:00,-489.82932644673537
2025-05-09 17:00:00+00:00,-489.82932644673537
2025-05-09 18:00:00+00:00,-489.82932644673537
2025-05-09 19:00:00+00:00,-489.82932644673537
2025-05-12 13:00:00+00:00,-489.82932644673537
2025-05-12 14:00:00+00:00,-489.82932644673537
2025-05-12 15:00:00+00:00,-489.82932644673537
2025-05-12 16:00:00+00:00,-489.82932644673537
2025-05-12 17:00:00+00:00,-489.82932644673537
2025-05-12 18:00:00+00:00,-489.82932644673537
2025-05-12 19:00:00+00:00,-489.82932644673537
2025-05-13 13:00:00+00:00,-489.82932644673537
2025-05-13 14:00:00+00:00,-489.82932644673537
2025-05-13 15:00:00+00:00,-489.82932644673537
2025-05-13 16:00:00+00:00,-489.82932644673537
2025-05-13 17:00:00+00:00,-489.82932644673537
2025-05-13 18:00:00+00:00,-489.82932644673537
2025-05-13 19:00:00+00:00,-489.82932644673537
2025-05-14 13:00:00+00:00,-489.82932644673537
2025-05-14 14:00:00+00:00,-489.82932644673537
2025-05-14 15:00:00+00:00,-489.82932644673537
2025-05-14 16:00:00+00:00,-489.82932644673537
2025-05-14 17:00:00+00:00,-489.82932644673537
2025-05-14 18:00:00+00:00,-489.82932644673537
2025-05-14 19:00:00+00:00,-489.82932644673537
2025-05-15 13:00:00+00:00,-489.82932644673537
2025-05-15 14:00:00+00:00,-489.82932644673537
2025-05-15 15:00:00+00:00,-489.82932644673537
2025-05-15 16:00:00+00:00,-489.82932644673537
2025-05-15 17:00:00+00:00,-489.82932644673537
2025-05-15 18:00:00+00:00,-489.82932644673537
2025-05-15 19:00:00+00:00,-489.82932644673537
2025-05-16 13:00:00+00:00,-489.82932644673537
2025-05-16 14:00:00+00:00,-489.82932644673537
2025-05-16 15:00:00+00:00,-489.82932644673537
2025-05-16 16:00:00+00:00,-489.82932644673537
2025-05-16 17:00:00+00:00,-489.82932644673537
2025-05-16 18:00:00+00:00,-489.82932644673537
2025-05-16 19:00:00+00:00,-489.82932644673537
2025-05-19 13:00:00+00:00,-489.82932644673537
2025-05-19 14:00:00+00:00,-489.82932644673537
2025-05-19 15:00:00+00:00,-489.82932644673537
2025-05-19 16:00:00+00:00,-489.82932644673537
2025-05-19 17:00:00+00:00,-489.82932644673537
2025-05-19 18:00:00+00:00,-489.82932644673537
2025-05-19 19:00:00+00:00,-489.82932644673537
2025-05-20 13:00:00+00:00,-489.82932644673537
2025-05-20 14:00:00+00:00,-489.82932644673537
2025-05-20 15:00:00+00:00,-489.82932644673537
2025-05-20 16:00:00+00:00,-489.82932644673537
2025-05-20 17:00:00+00:00,-489.82932644673537
2025-05-20 18:00:00+00:00,-489.82932644673537
2025-05-20 19:00:00+00:00,-489.82932644673537
2025-05-21 13:00:00+00:00,-489.82932644673537
2025-05-21 14:00:00+00:00,-489.82932644673537
2025-05-21 15:00:00+00:00,-489.82932644673537
2025-05-21 16:00:00+00:00,-489.82932644673537
2025-05-21 17:00:00+00:00,-489.82932644673537
2025-05-21 18:00:00+00:00,-489.82932644673537
2025-05-21 19:00:00+00:00,-489.82932644673537
2025-05-22 13:00:00+00:00,-489.82932644673537
2025-05-22 14:00:00+00:00,-489.82932644673537
2025-05-22 15:00:00+00:00,-489.82932644673537
2025-05-22 16:00:00+00:00,-489.82932644673537
2025-05-22 17:00:00+00:00,-489.82932644673537
2025-05-22 18:00:00+00:00,-489.82932644673537
2025-05-22 19:00:00+00:00,-489.82932644673537
2025-05-23 13:00:00+00:00,-489.82932644673537
2025-05-23 14:00:00+00:00,-489.82932644673537
2025-05-23 15:00:00+00:00,-489.82932644673537
2025-05-23 16:00:00+00:00,-489.82932644673537
2025-05-23 17:00:00+00:00,-489.82932644673537
2025-05-23 18:00:00+00:00,-489.82932644673537
2025-05-23 19:00:00+00:00,-489.82932644673537
2025-05-27 13:00:00+00:00,-489.82932644673537
2025-05-27 14:00:00+00:00,-489.82932644673537
2025-05-27 15:00:00+00:00,-489.82932644673537
2025-05-27 16:00:00+00:00,-489.82932644673537
2025-05-27 17:00:00+00:00,-489.82932644673537
2025-05-27 18:00:00+00:00,-489.82932644673537
2025-05-27 19:00:00+00:00,-489.82932644673537
2025-05-28 13:00:00+00:00,-489.82932644673537
2025-05-28 14:00:00+00:00,-489.82932644673537
2025-05-28 15:00:00+00:00,-489.82932644673537
2025-05-28 16:00:00+00:00,-489.82932644673537
2025-05-28 17:00:00+00:00,-489.82932644673537
2025-05-28 18:00:00+00:00,-489.82932644673537
2025-05-28 19:00:00+00:00,-489.82932644673537
2025-05-29 13:00:00+00:00,-489.82932644673537
2025-05-29 14:00:00+00:00,-489.82932644673537
2025-05-29 15:00:00+00:00,-489.82932644673537
2025-05-29 16:00:00+00:00,-489.82932644673537
2025-05-29 17:00:00+00:00,-489.82932644673537
2025-05-29 18:00:00+00:00,-489.82932644673537
2025-05-29 19:00:00+00:00,-489.82932644673537
2025-05-30 13:00:00+00:00,-489.82932644673537
2025-05-30 14:00:00+00:00,-489.82932644673537
2025-05-30 15:00:00+00:00,-489.82932644673537
2025-05-30 16:00:00+00:00,-489.82932644673537
2025-05-30 17:00:00+00:00,-489.82932644673537
2025-05-30 18:00:00+00:00,-489.82932644673537
2025-05-30 19:00:00+00:00,-489.82932644673537
2025-06-02 13:00:00+00:00,-489.82932644673537
2025-06-02 14:00:00+00:00,-489.82932644673537
2025-06-02 15:00:00+00:00,-489.82932644673537
2025-06-02 16:00:00+00:00,-489.82932644673537
2025-06-02 17:00:00+00:00,-489.82932644673537
2025-06-02 18:00:00+00:00,-489.82932644673537
2025-06-02 19:00:00+00:00,-489.82932644673537
2025-06-03 13:00:00+00:00,-489.82932644673537
2025-06-03 14:00:00+00:00,-489.82932644673537
2025-06-03 15:00:00+00:00,-489.82932644673537
2025-06-03 16:00:00+00:00,-489.82932644673537
2025-06-03 17:00:00+00:00,-489.82932644673537
2025-06-03 18:00:00+00:00,-489.82932644673537
2025-06-03 19:00:00+00:00,-489.82932644673537
2025-06-04 13:00:00+00:00,-489.82932644673537
2025-06-04 14:00:00+00:00,-489.82932644673537
2025-06-04 15:00:00+00:00,-489.82932644673537
2025-06-04 16:00:00+00:00,-489.82932644673537
2025-06-04 17:00:00+00:00,-489.82932644673537
2025-06-04 18:00:00+00:00,-489.82932644673537
2025-06-04 19:00:00+00:00,-489.82932644673537
2025-06-05 13:00:00+00:00,-489.82932644673537
2025-06-05 14:00:00+00:00,-489.82932644673537
2025-06-05 15:00:00+00:00,-489.82932644673537
2025-06-05 16:00:00+00:00,-489.82932644673537
2025-06-05 17:00:00+00:00,-489.82932644673537
2025-06-05 18:00:00+00:00,-489.82932644673537
2025-06-05 19:00:00+00:00,-489.82932644673537
2025-06-06 13:00:00+00:00,-489.82932644673537
2025-06-06 14:00:00+00:00,-489.82932644673537
2025-06-06 15:00:00+00:00,-489.82932644673537
2025-06-06 16:00:00+00:00,-489.82932644673537
2025-06-06 17:00:00+00:00,-489.82932644673537
2025-06-06 18:00:00+00:00,-489.82932644673537
2025-06-06 19:00:00+00:00,-489.82932644673537
2025-06-09 13:00:00+00:00,-489.82932644673537
2025-06-09 14:00:00+00:00,-489.82932644673537
2025-06-09 15:00:00+00:00,-489.82932644673537
2025-06-09 16:00:00+00:00,-489.82932644673537
2025-06-09 17:00:00+00:00,-489.82932644673537
2025-06-09 18:00:00+00:00,-489.82932644673537
2025-06-09 19:00:00+00:00,-489.82932644673537
2025-06-10 13:00:00+00:00,-489.82932644673537
2025-06-10 14:00:00+00:00,-489.82932644673537
2025-06-10 15:00:00+00:00,-489.82932644673537
2025-06-10 16:00:00+00:00,-489.82932644673537
2025-06-10 17:00:00+00:00,-489.82932644673537
2025-06-10 18:00:00+00:00,-489.82932644673537
2025-06-10 19:00:00+00:00,-489.82932644673537
2025-06-11 13:00:00+00:00,-489.82932644673537
2025-06-11 14:00:00+00:00,-489.82932644673537
2025-06-11 15:00:00+00:00,-489.82932644673537
2025-06-11 16:00:00+00:00,-489.82932644673537
2025-06-11 17:00:00+00:00,-489.82932644673537
2025-06-11 18:00:00+00:00,-489.82932644673537
2025-06-11 19:00:00+00:00,-489.82932644673537
2025-06-12 13:00:00+00:00,-489.82932644673537
2025-06-12 14:00:00+00:00,-489.82932644673537
2025-06-12 15:00:00+00:00,-489.82932644673537
2025-06-12 16:00:00+00:00,-489.82932644673537
2025-06-12 17:00:00+00:00,-489.82932644673537
2025-06-12 18:00:00+00:00,-489.82932644673537
2025-06-12 19:00:00+00:00,-489.82932644673537
2025-06-13 13:00:00+00:00,-489.82932644673537
2025-06-13 14:00:00+00:00,-489.82932644673537
2025-06-13 15:00:00+00:00,-489.82932644673537
2025-06-13 16:00:00+00:00,-489.82932644673537
2025-06-13 17:00:00+00:00,-489.82932644673537
2025-06-13 18:00:00+00:00,-489.82932644673537
2025-06-13 19:00:00+00:00,-489.82932644673537
2025-06-16 13:00:00+00:00,-489.82932644673537
2025-06-16 14:00:00+00:00,-489.82932644673537
2025-06-16 15:00:00+00:00,-489.82932644673537
2025-06-16 16:00:00+00:00,-489.82932644673537
2025-06-16 17:00:00+00:00,-489.82932644673537
2025-06-16 18:00:00+00:00,-489.82932644673537
2025-06-16 19:00:00+00:00,-489.82932644673537
2025-06-17 13:00:00+00:00,-489.82932644673537
2025-06-17 14:00:00+00:00,-489.82932644673537
2025-06-17 15:00:00+00:00,-489.82932644673537
2025-06-17 16:00:00+00:00,-489.82932644673537
2025-06-17 17:00:00+00:00,-489.82932644673537
2025-06-17 18:00:00+00:00,-489.82932644673537
2025-06-17 19:00:00+00:00,-489.82932644673537
2025-06-18 13:00:00+00:00,-489.82932644673537
2025-06-18 14:00:00+00:00,-489.82932644673537
2025-06-18 15:00:00+00:00,-489.82932644673537
2025-06-18 16:00:00+00:00,-489.82932644673537
2025-06-18 17:00:00+00:00,-489.82932644673537
2025-06-18 18:00:00+00:00,-489.82932644673537
2025-06-18 19:00:00+00:00,-489.82932644673537
2025-06-20 13:00:00+00:00,-489.82932644673537
2025-06-20 14:00:00+00:00,-489.82932644673537
2025-06-20 15:00:00+00:00,-489.82932644673537
2025-06-20 16:00:00+00:00,-489.82932644673537
2025-06-20 17:00:00+00:00,-489.82932644673537
2025-06-20 18:00:00+00:00,-489.82932644673537
2025-06-20 19:00:00+00:00,-489.82932644673537
2025-06-23 13:00:00+00:00,-489.82932644673537
2025-06-23 14:00:00+00:00,-489.82932644673537
2025-06-23 15:00:00+00:00,-489.82932644673537
2025-06-23 16:00:00+00:00,-489.82932644673537
2025-06-23 17:00:00+00:00,-489.82932644673537
2025-06-23 18:00:00+00:00,-489.82932644673537
2025-06-23 19:00:00+00:00,-489.82932644673537
2025-06-24 13:00:00+00:00,-489.82932644673537
2025-06-24 14:00:00+00:00,-489.82932644673537
2025-06-24 15:00:00+00:00,-489.82932644673537
2025-06-24 16:00:00+00:00,-489.82932644673537
2025-06-24 17:00:00+00:00,-489.82932644673537
2025-06-24 18:00:00+00:00,-489.82932644673537
2025-06-24 19:00:00+00:00,-489.82932644673537
2025-06-25 13:00:00+00:00,-489.82932644673537
2025-06-25 14:00:00+00:00,-489.82932644673537
2025-06-25 15:00:00+00:00,-489.82932644673537
2025-06-25 16:00:00+00:00,-489.82932644673537
2025-06-25 17:00:00+00:00,-489.82932644673537
2025-06-25 18:00:00+00:00,-489.82932644673537
2025-06-25 19:00:00+00:00,-489.82932644673537
2025-06-26 13:00:00+00:00,-489.82932644673537
2025-06-26 14:00:00+00:00,-489.82932644673537
2025-06-26 15:00:00+00:00,-489.82932644673537
2025-06-26 16:00:00+00:00,-489.82932644673537
2025-06-26 17:00:00+00:00,-489.82932644673537
2025-06-26 18:00:00+00:00,-489.82932644673537
2025-06-26 19:00:00+00:00,-489.82932644673537
2025-06-27 13:00:00+00:00,-489.82932644673537
2025-06-27 14:00:00+00:00,-489.82932644673537
2025-06-27 15:00:00+00:00,-489.82932644673537
2025-06-27 16:00:00+00:00,-489.82932644673537
2025-06-27 17:00:00+00:00,-489.82932644673537
2025-06-27 18:00:00+00:00,-489.82932644673537
2025-06-27 19:00:00+00:00,-489.82932644673537
2025-06-30 13:00:00+00:00,-489.82932644673537
2025-06-30 14:00:00+00:00,-489.82932644673537
2025-06-30 15:00:00+00:00,-489.82932644673537
2025-06-30 16:00:00+00:00,-489.82932644673537
2025-06-30 17:00:00+00:00,-489.82932644673537
2025-06-30 18:00:00+00:00,-489.82932644673537
2025-06-30 19:00:00+00:00,-489.82932644673537
2025-07-01 13:00:00+00:00,-489.82932644673537
2025-07-01 14:00:00+00:00,-489.82932644673537
2025-07-01 15:00:00+00:00,-489.82932644673537
2025-07-01 16:00:00+00:00,-489.82932644673537
2025-07-01 17:00:00+00:00,-489.82932644673537
2025-07-01 18:00:00+00:00,-489.82932644673537
2025-07-01 19:00:00+00:00,-489.82932644673537
2025-07-02 13:00:00+00:00,-489.82932644673537
2025-07-02 14:00:00+00:00,-489.82932644673537
2025-07-02 15:00:00+00:00,-489.82932644673537
2025-07-02 16:00:00+00:00,-489.82932644673537
2025-07-02 17:00:00+00:00,-489.82932644673537
2025-07-02 18:00:00+00:00,-489.82932644673537
2025-07-02 19:00:00+00:00,-489.82932644673537
2025-07-03 13:00:00+00:00,-489.82932644673537
2025-07-03 14:00:00+00:00,-489.82932644673537
2025-07-03 15:00:00+00:00,-489.82932644673537
2025-07-07 13:00:00+00:00,-489.82932644673537
2025-07-07 14:00:00+00:00,-489.82932644673537
2025-07-07 15:00:00+00:00,-489.82932644673537
2025-07-07 16:00:00+00:00,-489.82932644673537
2025-07-07 17:00:00+00:00,-489.82932644673537
2025-07-07 18:00:00+00:00,-489.82932644673537
2025-07-07 19:00:00+00:00,-489.82932644673537
2025-07-08 13:00:00+00:00,-489.82932644673537
2025-07-08 14:00:00+00:00,-489.82932644673537
2025-07-08 15:00:00+00:00,-489.82932644673537
2025-07-08 16:00:00+00:00,-489.82932644673537
2025-07-08 17:00:00+00:00,-489.82932644673537
2025-07-08 18:00:00+00:00,-489.82932644673537
2025-07-08 19:00:00+00:00,-489.82932644673537
2025-07-09 13:00:00+00:00,-489.82932644673537
2025-07-09 14:00:00+00:00,-489.82932644673537
2025-07-09 15:00:00+00:00,-489.82932644673537
2025-07-09 16:00:00+00:00,-489.82932644673537
2025-07-09 17:00:00+00:00,-489.82932644673537
2025-07-09 18:00:00+00:00,-489.82932644673537
2025-07-09 19:00:00+00:00,-489.82932644673537
2025-07-10 13:00:00+00:00,-489.82932644673537
2025-07-10 14:00:00+00:00,-489.82932644673537
2025-07-10 15:00:00+00:00,-489.82932644673537
2025-07-10 16:00:00+00:00,-489.82932644673537
2025-07-10 17:00:00+00:00,-489.82932644673537
2025-07-10 18:00:00+00:00,-489.82932644673537
2025-07-10 19:00:00+00:00,-489.82932644673537
2025-07-11 13:00:00+00:00,-489.82932644673537
2025-07-11 14:00:00+00:00,-489.82932644673537
2025-07-11 15:00:00+00:00,-489.82932644673537
2025-07-11 16:00:00+00:00,-489.82932644673537
2025-07-11 17:00:00+00:00,-489.82932644673537
2025-07-11 18:00:00+00:00,-489.82932644673537
2025-07-11 19:00:00+00:00,-489.82932644673537
2025-07-14 13:00:00+00:00,-489.82932644673537
2025-07-14 14:00:00+00:00,-489.82932644673537
2025-07-14 15:00:00+00:00,-489.82932644673537
2025-07-14 16:00:00+00:00,-489.82932644673537
2025-07-14 17:00:00+00:00,-489.82932644673537
2025-07-14 18:00:00+00:00,-489.82932644673537
2025-07-14 19:00:00+00:00,-489.82932644673537
2025-07-15 13:00:00+00:00,-489.82932644673537
2025-07-15 14:00:00+00:00,-489.82932644673537
2025-07-15 15:00:00+00:00,-489.82932644673537
2025-07-15 16:00:00+00:00,-489.82932644673537
2025-07-15 17:00:00+00:00,-489.82932644673537
2025-07-15 18:00:00+00:00,-489.82932644673537
2025-07-15 19:00:00+00:00,-489.82932644673537
2025-07-16 13:00:00+00:00,-489.82932644673537
2025-07-16 14:00:00+00:00,-489.82932644673537
2025-07-16 15:00:00+00:00,-489.82932644673537
2025-07-16 16:00:00+00:00,-489.82932644673537
2025-07-16 17:00:00+00:00,-489.82932644673537
2025-07-16 18:00:00+00:00,-489.82932644673537
2025-07-16 19:00:00+00:00,-489.82932644673537
2025-07-17 13:00:00+00:00,-489.82932644673537
2025-07-17 14:00:00+00:00,-489.82932644673537
2025-07-17 15:00:00+00:00,-489.82932644673537
2025-07-17 16:00:00+00:00,-489.82932644673537
2025-07-17 17:00:00+00:00,-489.82932644673537
2025-07-17 18:00:00+00:00,-489.82932644673537
2025-07-17 19:00:00+00:00,-489.82932644673537
2025-07-18 13:00:00+00:00,-489.82932644673537
2025-07-18 14:00:00+00:00,-489.82932644673537
2025-07-18 15:00:00+00:00,-489.82932644673537
2025-07-18 16:00:00+00:00,-489.82932644673537
2025-07-18 17:00:00+00:00,-489.82932644673537
2025-07-18 18:00:00+00:00,-489.82932644673537
2025-07-18 19:00:00+00:00,-489.82932644673537
2025-07-21 13:00:00+00:00,-489.82932644673537
2025-07-21 14:00:00+00:00,-489.82932644673537
2025-07-21 15:00:00+00:00,-489.82932644673537
2025-07-21 16:00:00+00:00,-489.82932644673537
2025-07-21 17:00:00+00:00,-489.82932644673537
2025-07-21 18:00:00+00:00,-489.82932644673537
2025-07-21 19:00:00+00:00,-489.82932644673537
2025-07-22 13:00:00+00:00,-489.82932644673537
2025-07-22 14:00:00+00:00,-489.82932644673537
2025-07-22 15:00:00+00:00,-489.82932644673537
2025-07-22 16:00:00+00:00,-489.82932644673537
2025-07-22 17:00:00+00:00,-489.82932644673537
2025-07-22 18:00:00+00:00,-489.82932644673537
2025-07-22 19:00:00+00:00,-489.82932644673537
2025-07-23 13:00:00+00:00,-489.82932644673537
2025-07-23 14:00:00+00:00,-489.82932644673537
2025-07-23 15:00:00+00:00,-489.82932644673537
2025-07-23 16:00:00+00:00,-489.82932644673537
2025-07-23 17:00:00+00:00,-489.82932644673537
2025-07-23 18:00:00+00:00,-489.82932644673537
2025-07-23 19:00:00+00:00,-489.82932644673537
2025-07-24 13:00:00+00:00,-489.82932644673537
2025-07-24 14:00:00+00:00,-489.82932644673537
2025-07-24 15:00:00+00:00,-489.82932644673537
2025-07-24 16:00:00+00:00,-489.82932644673537
2025-07-24 17:00:00+00:00,-489.82932644673537
2025-07-24 18:00:00+00:00,-489.82932644673537
2025-07-24 19:00:00+00:00,-489.82932644673537
2025-07-25 13:00:00+00:00,-489.82932644673537
2025-07-25 14:00:00+00:00,-489.82932644673537
2025-07-25 15:00:00+00:00,-489.82932644673537
2025-07-25 16:00:00+00:00,-489.82932644673537
2025-07-25 17:00:00+00:00,-489.82932644673537
2025-07-25 18:00:00+00:00,-489.82932644673537
2025-07-25 19:00:00+00:00,-489.82932644673537
2025-07-28 13:00:00+00:00,-489.82932644673537
2025-07-28 14:00:00+00:00,-489.82932644673537
2025-07-28 15:00:00+00:00,-489.82932644673537
2025-07-28 16:00:00+00:00,-489.82932644673537
2025-07-28 17:00:00+00:00,-489.82932644673537
2025-07-28 18:00:00+00:00,-489.82932644673537
2025-07-28 19:00:00+00:00,-489.82932644673537
2025-07-29 13:00:00+00:00,-489.82932644673537
2025-07-29 14:00:00+00:00,-489.82932644673537
2025-07-29 15:00:00+00:00,-489.82932644673537
2025-07-29 16:00:00+00:00,-489.82932644673537
2025-07-29 17:00:00+00:00,-489.82932644673537
2025-07-29 18:00:00+00:00,-489.82932644673537
2025-07-29 19:00:00+00:00,-489.82932644673537
2025-07-30 13:00:00+00:00,-489.82932644673537
2025-07-30 14:00:00+00:00,-489.82932644673537
2025-07-30 15:00:00+00:00,-489.82932644673537
2025-07-30 16:00:00+00:00,-489.82932644673537
2025-07-30 17:00:00+00:00,-489.82932644673537
2025-07-30 18:00:00+00:00,-489.82932644673537
2025-07-30 19:00:00+00:00,-489.82932644673537
2025-07-31 13:00:00+00:00,-489.82932644673537
2025-07-31 14:00:00+00:00,-489.82932644673537
2025-07-31 15:00:00+00:00,-489.82932644673537
2025-07-31 16:00:00+00:00,-489.82932644673537
2025-07-31 17:00:00+00:00,-489.82932644673537
2025-07-31 18:00:00+00:00,-489.82932644673537
2025-07-31 19:00:00+00:00,-489.82932644673537
2025-08-01 13:00:00+00:00,-489.82932644673537
2025-08-01 14:00:00+00:00,-489.82932644673537
2025-08-01 15:00:00+00:00,-489.82932644673537
2025-08-01 16:00:00+00:00,-489.82932644673537
2025-08-01 17:00:00+00:00,-489.82932644673537
2025-08-01 18:00:00+00:00,-489.82932644673537
2025-08-01 19:00:00+00:00,-489.82932644673537
2025-08-04 13:00:00+00:00,-489.82932644673537
2025-08-04 14:00:00+00:00,-489.82932644673537
2025-08-04 15:00:00+00:00,-489.82932644673537
2025-08-04 16:00:00+00:00,-489.82932644673537
2025-08-04 17:00:00+00:00,-489.82932644673537
2025-08-04 18:00:00+00:00,-489.82932644673537
2025-08-04 19:00:00+00:00,-489.82932644673537
2025-08-05 13:00:00+00:00,-489.82932644673537
2025-08-05 14:00:00+00:00,-489.82932644673537
2025-08-05 15:00:00+00:00,-489.82932644673537
2025-08-05 16:00:00+00:00,-489.82932644673537
2025-08-05 17:00:00+00:00,-489.82932644673537
2025-08-05 18:00:00+00:00,-489.82932644673537
2025-08-05 19:00:00+00:00,-489.82932644673537
2025-08-06 13:00:00+00:00,-489.82932644673537
2025-08-06 14:00:00+00:00,-489.82932644673537
2025-08-06 15:00:00+00:00,-489.82932644673537
2025-08-06 16:00:00+00:00,-489.82932644673537
2025-08-06 17:00:00+00:00,-489.82932644673537
2025-08-06 18:00:00+00:00,-489.82932644673537
2025-08-06 19:00:00+00:00,-489.82932644673537
2025-08-07 13:00:00+00:00,-489.82932644673537
2025-08-07 14:00:00+00:00,-489.82932644673537
2025-08-07 15:00:00+00:00,-489.82932644673537
2025-08-07 16:00:00+00:00,-489.82932644673537
2025-08-07 17:00:00+00:00,-489.82932644673537
2025-08-07 18:00:00+00:00,-489.82932644673537
2025-08-07 19:00:00+00:00,-489.82932644673537
2025-08-08 13:00:00+00:00,-489.82932644673537
2025-08-08 14:00:00+00:00,-489.82932644673537
2025-08-08 15:00:00+00:00,-489.82932644673537
2025-08-08 16:00:00+00:00,-489.82932644673537
2025-08-08 17:00:00+00:00,-489.82932644673537
2025-08-08 18:00:00+00:00,-489.82932644673537
2025-08-08 19:00:00+00:00,-489.82932644673537
2025-08-11 13:00:00+00:00,-489.82932644673537
2025-08-11 14:00:00+00:00,-489.82932644673537
2025-08-11 15:00:00+00:00,-489.82932644673537
2025-08-11 16:00:00+00:00,-489.82932644673537
2025-08-11 17:00:00+00:00,-489.82932644673537
2025-08-11 18:00:00+00:00,-489.82932644673537
2025-08-11 19:00:00+00:00,-489.82932644673537
2025-08-12 13:00:00+00:00,-489.82932644673537
2025-08-12 14:00:00+00:00,-489.82932644673537
2025-08-12 15:00:00+00:00,-489.82932644673537
2025-08-12 16:00:00+00:00,-489.82932644673537
2025-08-12 17:00:00+00:00,-489.82932644673537
2025-08-12 18:00:00+00:00,-489.82932644673537
2025-08-12 19:00:00+00:00,-489.82932644673537
2025-08-13 13:00:00+00:00,-489.82932644673537
2025-08-13 14:00:00+00:00,-489.82932644673537
2025-08-13 15:00:00+00:00,-489.82932644673537
2025-08-13 16:00:00+00:00,-489.82932644673537
2025-08-13 17:00:00+00:00,-489.82932644673537
2025-08-13 18:00:00+00:00,-489.82932644673537
2025-08-13 19:00:00+00:00,-489.82932644673537
2025-08-14 13:00:00+00:00,-489.82932644673537
2025-08-14 14:00:00+00:00,-489.82932644673537
2025-08-14 15:00:00+00:00,-489.82932644673537
2025-08-14 16:00:00+00:00,-489.82932644673537
2025-08-14 17:00:00+00:00,-489.82932644673537
2025-08-14 18:00:00+00:00,-489.82932644673537
2025-08-14 19:00:00+00:00,-489.82932644673537
2025-08-15 13:00:00+00:00,-489.82932644673537
2025-08-15 14:00:00+00:00,-489.82932644673537
2025-08-15 15:00:00+00:00,-489.82932644673537
2025-08-15 16:00:00+00:00,-489.82932644673537
2025-08-15 17:00:00+00:00,-489.82932644673537
2025-08-15 18:00:00+00:00,-489.82932644673537
2025-08-15 19:00:00+00:00,-489.82932644673537
2025-08-18 13:00:00+00:00,-489.82932644673537
2025-08-18 14:00:00+00:00,-489.82932644673537
2025-08-18 15:00:00+00:00,-489.82932644673537
2025-08-18 16:00:00+00:00,-489.82932644673537
2025-08-18 17:00:00+00:00,-489.82932644673537
2025-08-18 18:00:00+00:00,-489.82932644673537
2025-08-18 19:00:00+00:00,-489.82932644673537
2025-08-19 13:00:00+00:00,-489.82932644673537
2025-08-19 14:00:00+00:00,-489.82932644673537
2025-08-19 15:00:00+00:00,-489.82932644673537
2025-08-19 16:00:00+00:00,-489.82932644673537
2025-08-19 17:00:00+00:00,-489.82932644673537
2025-08-19 18:00:00+00:00,-489.82932644673537
2025-08-19 19:00:00+00:00,-489.82932644673537
2025-08-20 13:00:00+00:00,-489.82932644673537
2025-08-20 14:00:00+00:00,-489.82932644673537
2025-08-20 15:00:00+00:00,-489.82932644673537
2025-08-20 16:00:00+00:00,-489.82932644673537
2025-08-20 17:00:00+00:00,-489.82932644673537
2025-08-20 18:00:00+00:00,-489.82932644673537
2025-08-20 19:00:00+00:00,-489.82932644673537
2025-08-21 13:00:00+00:00,-489.82932644673537
2025-08-21 14:00:00+00:00,-489.82932644673537
2025-08-21 15:00:00+00:00,-489.82932644673537
2025-08-21 16:00:00+00:00,-489.82932644673537
2025-08-21 17:00:00+00:00,-489.82932644673537
2025-08-21 18:00:00+00:00,-489.82932644673537
2025-08-21 19:00:00+00:00,-489.82932644673537
2025-08-22 13:00:00+00:00,-489.82932644673537
2025-08-22 14:00:00+00:00,-489.82932644673537
2025-08-22 15:00:00+00:00,-489.82932644673537
2025-08-22 16:00:00+00:00,-489.82932644673537
2025-08-22 17:00:00+00:00,-489.82932644673537
2025-08-22 18:00:00+00:00,-489.82932644673537
2025-08-22 19:00:00+00:00,-489.82932644673537
2025-08-25 13:00:00+00:00,-489.82932644673537
2025-08-25 14:00:00+00:00,-489.82932644673537
2025-08-25 15:00:00+00:00,-489.82932644673537
2025-08-25 16:00:00+00:00,-489.82932644673537
2025-08-25 17:00:00+00:00,-489.82932644673537
2025-08-25 18:00:00+00:00,-489.82932644673537
2025-08-25 19:00:00+00:00,-489.82932644673537
2025-08-26 13:00:00+00:00,-489.82932644673537
2025-08-26 14:00:00+00:00,-489.82932644673537
2025-08-26 15:00:00+00:00,-489.82932644673537
2025-08-26 16:00:00+00:00,-489.82932644673537
2025-08-26 17:00:00+00:00,-489.82932644673537
2025-08-26 18:00:00+00:00,-489.82932644673537
2025-08-26 19:00:00+00:00,-489.82932644673537
2025-08-27 13:00:00+00:00,-489.82932644673537
2025-08-27 14:00:00+00:00,-489.82932644673537
2025-08-27 15:00:00+00:00,-489.82932644673537
2025-08-27 16:00:00+00:00,-489.82932644673537
2025-08-27 17:00:00+00:00,-489.82932644673537
2025-08-27 18:00:00+00:00,-489.82932644673537
2025-08-27 19:00:00+00:00,-489.82932644673537
2025-08-28 13:00:00+00:00,-489.82932644673537
2025-08-28 14:00:00+00:00,-489.82932644673537
2025-08-28 15:00:00+00:00,-489.82932644673537
2025-08-28 16:00:00+00:00,-489.82932644673537
2025-08-28 17:00:00+00:00,-489.82932644673537
2025-08-28 18:00:00+00:00,-489.82932644673537
2025-08-28 19:00:00+00:00,-489.82932644673537
2025-08-29 13:00:00+00:00,-489.82932644673537
2025-08-29 14:00:00+00:00,-489.82932644673537
2025-08-29 15:00:00+00:00,-489.82932644673537
2025-08-29 16:00:00+00:00,-489.82932644673537
2025-08-29 17:00:00+00:00,-489.82932644673537
2025-08-29 18:00:00+00:00,-489.82932644673537
2025-08-29 19:00:00+00:00,-489.82932644673537
2025-09-02 13:00:00+00:00,-489.82932644673537
2025-09-02 14:00:00+00:00,-489.82932644673537
2025-09-02 15:00:00+00:00,-489.82932644673537
2025-09-02 16:00:00+00:00,-489.82932644673537
2025-09-02 17:00:00+00:00,-489.82932644673537
2025-09-02 18:00:00+00:00,-489.82932644673537
2025-09-02 19:00:00+00:00,-489.82932644673537
2025-09-03 13:00:00+00:00,-489.82932644673537
2025-09-03 14:00:00+00:00,-489.82932644673537
2025-09-03 15:00:00+00:00,-489.82932644673537
2025-09-03 16:00:00+00:00,-489.82932644673537
2025-09-03 17:00:00+00:00,-489.82932644673537
2025-09-03 18:00:00+00:00,-489.82932644673537
2025-09-03 19:00:00+00:00,-489.82932644673537
2025-09-04 13:00:00+00:00,-489.82932644673537
2025-09-04 14:00:00+00:00,-489.82932644673537
2025-09-04 15:00:00+00:00,-489.82932644673537
2025-09-04 16:00:00+00:00,-489.82932644673537
2025-09-04 17:00:00+00:00,-489.82932644673537
2025-09-04 18:00:00+00:00,-489.82932644673537
2025-09-04 19:00:00+00:00,-489.82932644673537
2025-09-05 13:00:00+00:00,-489.82932644673537
2025-09-05 14:00:00+00:00,-489.82932644673537
2025-09-05 15:00:00+00:00,-489.82932644673537
2025-09-05 16:00:00+00:00,-489.82932644673537
2025-09-05 17:00:00+00:00,-489.82932644673537
2025-09-05 18:00:00+00:00,-489.82932644673537
2025-09-05 19:00:00+00:00,-489.82932644673537
2025-09-08 13:00:00+00:00,-489.82932644673537
2025-09-08 14:00:00+00:00,-489.82932644673537
2025-09-08 15:00:00+00:00,-489.82932644673537
2025-09-08 16:00:00+00:00,-489.82932644673537
2025-09-08 17:00:00+00:00,-489.82932644673537
2025-09-08 18:00:00+00:00,-489.82932644673537
2025-09-08 19:00:00+00:00,-489.82932644673537
2025-09-09 13:00:00+00:00,-489.82932644673537
2025-09-09 14:00:00+00:00,-489.82932644673537
2025-09-09 15:00:00+00:00,-489.82932644673537
2025-09-09 16:00:00+00:00,-489.82932644673537
2025-09-09 17:00:00+00:00,-489.82932644673537
