Date,0
2024-01-02 14:00:00+00:00,0.0
2024-01-02 15:00:00+00:00,0.0
2024-01-02 16:00:00+00:00,0.0
2024-01-02 17:00:00+00:00,0.0
2024-01-02 18:00:00+00:00,0.0
2024-01-02 19:00:00+00:00,0.0
2024-01-02 20:00:00+00:00,0.0
2024-01-03 14:00:00+00:00,0.0
2024-01-03 15:00:00+00:00,0.0
2024-01-03 16:00:00+00:00,0.0
2024-01-03 17:00:00+00:00,0.0
2024-01-03 18:00:00+00:00,0.0
2024-01-03 19:00:00+00:00,0.0
2024-01-03 20:00:00+00:00,0.0
2024-01-04 14:00:00+00:00,0.0
2024-01-04 15:00:00+00:00,0.0
2024-01-04 16:00:00+00:00,0.0
2024-01-04 17:00:00+00:00,0.0
2024-01-04 18:00:00+00:00,0.0
2024-01-04 19:00:00+00:00,0.0
2024-01-04 20:00:00+00:00,0.0
2024-01-05 14:00:00+00:00,0.0
2024-01-05 15:00:00+00:00,0.0
2024-01-05 16:00:00+00:00,0.0
2024-01-05 17:00:00+00:00,0.0
2024-01-05 18:00:00+00:00,0.0
2024-01-05 19:00:00+00:00,0.0
2024-01-05 20:00:00+00:00,0.0
2024-01-08 14:00:00+00:00,0.0
2024-01-08 15:00:00+00:00,0.0
2024-01-08 16:00:00+00:00,0.0
2024-01-08 17:00:00+00:00,0.0
2024-01-08 18:00:00+00:00,0.0
2024-01-08 19:00:00+00:00,0.0
2024-01-08 20:00:00+00:00,0.0
2024-01-09 14:00:00+00:00,0.0
2024-01-09 15:00:00+00:00,0.0
2024-01-09 16:00:00+00:00,0.0
2024-01-09 17:00:00+00:00,0.0
2024-01-09 18:00:00+00:00,0.0
2024-01-09 19:00:00+00:00,0.0
2024-01-09 20:00:00+00:00,0.0
2024-01-10 14:00:00+00:00,0.0
2024-01-10 15:00:00+00:00,0.0
2024-01-10 16:00:00+00:00,0.0
2024-01-10 17:00:00+00:00,0.0
2024-01-10 18:00:00+00:00,0.0
2024-01-10 19:00:00+00:00,0.0
2024-01-10 20:00:00+00:00,0.0
2024-01-11 14:00:00+00:00,0.0
2024-01-11 15:00:00+00:00,0.0
2024-01-11 16:00:00+00:00,0.0
2024-01-11 17:00:00+00:00,0.0
2024-01-11 18:00:00+00:00,0.0
2024-01-11 19:00:00+00:00,0.0
2024-01-11 20:00:00+00:00,0.0
2024-01-12 14:00:00+00:00,0.0
2024-01-12 15:00:00+00:00,0.0
2024-01-12 16:00:00+00:00,0.0
2024-01-12 17:00:00+00:00,0.0
2024-01-12 18:00:00+00:00,0.0
2024-01-12 19:00:00+00:00,0.0
2024-01-12 20:00:00+00:00,0.0
2024-01-16 14:00:00+00:00,0.0
2024-01-16 15:00:00+00:00,0.0
2024-01-16 16:00:00+00:00,0.0
2024-01-16 17:00:00+00:00,0.0
2024-01-16 18:00:00+00:00,0.0
2024-01-16 19:00:00+00:00,0.0
2024-01-16 20:00:00+00:00,0.0
2024-01-17 14:00:00+00:00,0.0
2024-01-17 15:00:00+00:00,0.0
2024-01-17 16:00:00+00:00,0.0
2024-01-17 17:00:00+00:00,0.0
2024-01-17 18:00:00+00:00,0.0
2024-01-17 19:00:00+00:00,0.0
2024-01-17 20:00:00+00:00,0.0
2024-01-18 14:00:00+00:00,0.0
2024-01-18 15:00:00+00:00,0.0
2024-01-18 16:00:00+00:00,0.0
2024-01-18 17:00:00+00:00,0.0
2024-01-18 18:00:00+00:00,0.0
2024-01-18 19:00:00+00:00,0.0
2024-01-18 20:00:00+00:00,0.0
2024-01-19 14:00:00+00:00,0.0
2024-01-19 15:00:00+00:00,0.0
2024-01-19 16:00:00+00:00,0.0
2024-01-19 17:00:00+00:00,0.0
2024-01-19 18:00:00+00:00,0.0
2024-01-19 19:00:00+00:00,0.0
2024-01-19 20:00:00+00:00,0.0
2024-01-22 14:00:00+00:00,0.0
2024-01-22 15:00:00+00:00,0.0
2024-01-22 16:00:00+00:00,0.0
2024-01-22 17:00:00+00:00,0.0
2024-01-22 18:00:00+00:00,0.0
2024-01-22 19:00:00+00:00,0.0
2024-01-22 20:00:00+00:00,0.0
2024-01-23 14:00:00+00:00,0.0
2024-01-23 15:00:00+00:00,0.0
2024-01-23 16:00:00+00:00,0.0
2024-01-23 17:00:00+00:00,0.0
2024-01-23 18:00:00+00:00,0.0
2024-01-23 19:00:00+00:00,0.0
2024-01-23 20:00:00+00:00,0.0
2024-01-24 14:00:00+00:00,0.0
2024-01-24 15:00:00+00:00,0.0
2024-01-24 16:00:00+00:00,0.0
2024-01-24 17:00:00+00:00,0.0
2024-01-24 18:00:00+00:00,0.0
2024-01-24 19:00:00+00:00,0.0
2024-01-24 20:00:00+00:00,0.0
2024-01-25 14:00:00+00:00,0.0
2024-01-25 15:00:00+00:00,0.0
2024-01-25 16:00:00+00:00,0.0
2024-01-25 17:00:00+00:00,0.0
2024-01-25 18:00:00+00:00,0.0
2024-01-25 19:00:00+00:00,0.0
2024-01-25 20:00:00+00:00,0.0
2024-01-26 14:00:00+00:00,0.0
2024-01-26 15:00:00+00:00,0.0
2024-01-26 16:00:00+00:00,0.0
2024-01-26 17:00:00+00:00,0.0
2024-01-26 18:00:00+00:00,0.0
2024-01-26 19:00:00+00:00,0.0
2024-01-26 20:00:00+00:00,0.0
2024-01-29 14:00:00+00:00,0.0
2024-01-29 15:00:00+00:00,0.0
2024-01-29 16:00:00+00:00,0.0
2024-01-29 17:00:00+00:00,0.0
2024-01-29 18:00:00+00:00,0.0
2024-01-29 19:00:00+00:00,0.0
2024-01-29 20:00:00+00:00,0.0
2024-01-30 14:00:00+00:00,0.0
2024-01-30 15:00:00+00:00,0.0
2024-01-30 16:00:00+00:00,0.0
2024-01-30 17:00:00+00:00,0.0
2024-01-30 18:00:00+00:00,0.0
2024-01-30 19:00:00+00:00,0.0
2024-01-30 20:00:00+00:00,0.0
2024-01-31 14:00:00+00:00,0.0
2024-01-31 15:00:00+00:00,0.0
2024-01-31 16:00:00+00:00,0.0
2024-01-31 17:00:00+00:00,0.0
2024-01-31 18:00:00+00:00,0.0
2024-01-31 19:00:00+00:00,0.0
2024-01-31 20:00:00+00:00,0.0
2024-02-01 14:00:00+00:00,0.0
2024-02-01 15:00:00+00:00,0.0
2024-02-01 16:00:00+00:00,0.0
2024-02-01 17:00:00+00:00,0.0
2024-02-01 18:00:00+00:00,0.0
2024-02-01 19:00:00+00:00,0.0
2024-02-01 20:00:00+00:00,0.0
2024-02-02 14:00:00+00:00,0.0
2024-02-02 15:00:00+00:00,0.0
2024-02-02 16:00:00+00:00,0.0
2024-02-02 17:00:00+00:00,0.0
2024-02-02 18:00:00+00:00,0.0
2024-02-02 19:00:00+00:00,0.0
2024-02-02 20:00:00+00:00,0.0
2024-02-05 14:00:00+00:00,0.0
2024-02-05 15:00:00+00:00,0.0
2024-02-05 16:00:00+00:00,0.0
2024-02-05 17:00:00+00:00,0.0
2024-02-05 18:00:00+00:00,0.0
2024-02-05 19:00:00+00:00,0.0
2024-02-05 20:00:00+00:00,0.0
2024-02-06 14:00:00+00:00,0.0
2024-02-06 15:00:00+00:00,0.0
2024-02-06 16:00:00+00:00,0.0
2024-02-06 17:00:00+00:00,0.0
2024-02-06 18:00:00+00:00,0.0
2024-02-06 19:00:00+00:00,0.0
2024-02-06 20:00:00+00:00,0.0
2024-02-07 14:00:00+00:00,0.0
2024-02-07 15:00:00+00:00,0.0
2024-02-07 16:00:00+00:00,0.0
2024-02-07 17:00:00+00:00,0.0
2024-02-07 18:00:00+00:00,0.0
2024-02-07 19:00:00+00:00,0.0
2024-02-07 20:00:00+00:00,0.0
2024-02-08 14:00:00+00:00,0.0
2024-02-08 15:00:00+00:00,0.0
2024-02-08 16:00:00+00:00,0.0
2024-02-08 17:00:00+00:00,0.0
2024-02-08 18:00:00+00:00,0.0
2024-02-08 19:00:00+00:00,0.0
2024-02-08 20:00:00+00:00,0.0
2024-02-09 14:00:00+00:00,0.0
2024-02-09 15:00:00+00:00,0.0
2024-02-09 16:00:00+00:00,0.0
2024-02-09 17:00:00+00:00,0.0
2024-02-09 18:00:00+00:00,0.0
2024-02-09 19:00:00+00:00,0.0
2024-02-09 20:00:00+00:00,0.0
2024-02-12 14:00:00+00:00,0.0
2024-02-12 15:00:00+00:00,0.0
2024-02-12 16:00:00+00:00,0.0
2024-02-12 17:00:00+00:00,0.0
2024-02-12 18:00:00+00:00,0.0
2024-02-12 19:00:00+00:00,0.0
2024-02-12 20:00:00+00:00,0.0
2024-02-13 14:00:00+00:00,0.0
2024-02-13 15:00:00+00:00,0.0
2024-02-13 16:00:00+00:00,0.0
2024-02-13 17:00:00+00:00,0.0
2024-02-13 18:00:00+00:00,0.0
2024-02-13 19:00:00+00:00,0.0
2024-02-13 20:00:00+00:00,0.0
2024-02-14 14:00:00+00:00,0.0
2024-02-14 15:00:00+00:00,0.0
2024-02-14 16:00:00+00:00,0.0
2024-02-14 17:00:00+00:00,0.0
2024-02-14 18:00:00+00:00,0.0
2024-02-14 19:00:00+00:00,0.0
2024-02-14 20:00:00+00:00,0.0
2024-02-15 14:00:00+00:00,0.0
2024-02-15 15:00:00+00:00,0.0
2024-02-15 16:00:00+00:00,0.0
2024-02-15 17:00:00+00:00,0.0
2024-02-15 18:00:00+00:00,0.0
2024-02-15 19:00:00+00:00,0.0
2024-02-15 20:00:00+00:00,0.0
2024-02-16 14:00:00+00:00,0.0
2024-02-16 15:00:00+00:00,0.0
2024-02-16 16:00:00+00:00,0.0
2024-02-16 17:00:00+00:00,0.0
2024-02-16 18:00:00+00:00,0.0
2024-02-16 19:00:00+00:00,0.0
2024-02-16 20:00:00+00:00,0.0
2024-02-20 14:00:00+00:00,0.0
2024-02-20 15:00:00+00:00,0.0
2024-02-20 16:00:00+00:00,0.0
2024-02-20 17:00:00+00:00,0.0
2024-02-20 18:00:00+00:00,0.0
2024-02-20 19:00:00+00:00,0.0
2024-02-20 20:00:00+00:00,0.0
2024-02-21 14:00:00+00:00,0.0
2024-02-21 15:00:00+00:00,0.0
2024-02-21 16:00:00+00:00,0.0
2024-02-21 17:00:00+00:00,0.0
2024-02-21 18:00:00+00:00,0.0
2024-02-21 19:00:00+00:00,0.0
2024-02-21 20:00:00+00:00,0.0
2024-02-22 14:00:00+00:00,0.0
2024-02-22 15:00:00+00:00,0.0
2024-02-22 16:00:00+00:00,0.0
2024-02-22 17:00:00+00:00,0.0
2024-02-22 18:00:00+00:00,0.0
2024-02-22 19:00:00+00:00,0.0
2024-02-22 20:00:00+00:00,0.0
2024-02-23 14:00:00+00:00,0.0
2024-02-23 15:00:00+00:00,0.0
2024-02-23 16:00:00+00:00,0.0
2024-02-23 17:00:00+00:00,0.0
2024-02-23 18:00:00+00:00,0.0
2024-02-23 19:00:00+00:00,0.0
2024-02-23 20:00:00+00:00,0.0
2024-02-26 14:00:00+00:00,0.0
2024-02-26 15:00:00+00:00,0.0
2024-02-26 16:00:00+00:00,0.0
2024-02-26 17:00:00+00:00,0.0
2024-02-26 18:00:00+00:00,0.0
2024-02-26 19:00:00+00:00,0.0
2024-02-26 20:00:00+00:00,0.0
2024-02-27 14:00:00+00:00,0.0
2024-02-27 15:00:00+00:00,0.0
2024-02-27 16:00:00+00:00,0.0
2024-02-27 17:00:00+00:00,0.0
2024-02-27 18:00:00+00:00,0.0
2024-02-27 19:00:00+00:00,0.0
2024-02-27 20:00:00+00:00,0.0
2024-02-28 14:00:00+00:00,0.0
2024-02-28 15:00:00+00:00,0.0
2024-02-28 16:00:00+00:00,0.0
2024-02-28 17:00:00+00:00,0.0
2024-02-28 18:00:00+00:00,0.0
2024-02-28 19:00:00+00:00,0.0
2024-02-28 20:00:00+00:00,0.0
2024-02-29 14:00:00+00:00,0.0
2024-02-29 15:00:00+00:00,0.0
2024-02-29 16:00:00+00:00,0.0
2024-02-29 17:00:00+00:00,0.0
2024-02-29 18:00:00+00:00,0.0
2024-02-29 19:00:00+00:00,0.0
2024-02-29 20:00:00+00:00,0.0
2024-03-01 14:00:00+00:00,0.0
2024-03-01 15:00:00+00:00,0.0
2024-03-01 16:00:00+00:00,0.0
2024-03-01 17:00:00+00:00,0.0
2024-03-01 18:00:00+00:00,0.0
2024-03-01 19:00:00+00:00,0.0
2024-03-01 20:00:00+00:00,0.0
2024-03-04 14:00:00+00:00,0.0
2024-03-04 15:00:00+00:00,0.0
2024-03-04 16:00:00+00:00,0.0
2024-03-04 17:00:00+00:00,0.0
2024-03-04 18:00:00+00:00,0.0
2024-03-04 19:00:00+00:00,0.0
2024-03-04 20:00:00+00:00,0.0
2024-03-05 14:00:00+00:00,0.0
2024-03-05 15:00:00+00:00,0.0
2024-03-05 16:00:00+00:00,0.0
2024-03-05 17:00:00+00:00,0.0
2024-03-05 18:00:00+00:00,0.0
2024-03-05 19:00:00+00:00,0.0
2024-03-05 20:00:00+00:00,0.0
2024-03-06 14:00:00+00:00,0.0
2024-03-06 15:00:00+00:00,0.0
2024-03-06 16:00:00+00:00,0.0
2024-03-06 17:00:00+00:00,0.0
2024-03-06 18:00:00+00:00,0.0
2024-03-06 19:00:00+00:00,0.0
2024-03-06 20:00:00+00:00,0.0
2024-03-07 14:00:00+00:00,0.0
2024-03-07 15:00:00+00:00,0.0
2024-03-07 16:00:00+00:00,0.0
2024-03-07 17:00:00+00:00,0.0
2024-03-07 18:00:00+00:00,0.0
2024-03-07 19:00:00+00:00,0.0
2024-03-07 20:00:00+00:00,0.0
2024-03-08 14:00:00+00:00,0.0
2024-03-08 15:00:00+00:00,0.0
2024-03-08 16:00:00+00:00,0.0
2024-03-08 17:00:00+00:00,0.0
2024-03-08 18:00:00+00:00,0.0
2024-03-08 19:00:00+00:00,0.0
2024-03-08 20:00:00+00:00,0.0
2024-03-11 13:00:00+00:00,0.0
2024-03-11 14:00:00+00:00,0.0
2024-03-11 15:00:00+00:00,0.0
2024-03-11 16:00:00+00:00,0.0
2024-03-11 17:00:00+00:00,0.0
2024-03-11 18:00:00+00:00,0.0
2024-03-11 19:00:00+00:00,0.0
2024-03-12 13:00:00+00:00,0.0
2024-03-12 14:00:00+00:00,0.0
2024-03-12 15:00:00+00:00,0.0
2024-03-12 16:00:00+00:00,0.0
2024-03-12 17:00:00+00:00,0.0
2024-03-12 18:00:00+00:00,0.0
2024-03-12 19:00:00+00:00,0.0
2024-03-13 13:00:00+00:00,0.0
2024-03-13 14:00:00+00:00,0.0
2024-03-13 15:00:00+00:00,0.0
2024-03-13 16:00:00+00:00,0.0
2024-03-13 17:00:00+00:00,0.0
2024-03-13 18:00:00+00:00,0.0
2024-03-13 19:00:00+00:00,0.0
2024-03-14 13:00:00+00:00,0.0
2024-03-14 14:00:00+00:00,0.0
2024-03-14 15:00:00+00:00,0.0
2024-03-14 16:00:00+00:00,0.0
2024-03-14 17:00:00+00:00,0.0
2024-03-14 18:00:00+00:00,0.0
2024-03-14 19:00:00+00:00,0.0
2024-03-15 13:00:00+00:00,0.0
2024-03-15 14:00:00+00:00,0.0
2024-03-15 15:00:00+00:00,0.0
2024-03-15 16:00:00+00:00,0.0
2024-03-15 17:00:00+00:00,0.0
2024-03-15 18:00:00+00:00,0.0
2024-03-15 19:00:00+00:00,0.0
2024-03-18 13:00:00+00:00,0.0
2024-03-18 14:00:00+00:00,0.0
2024-03-18 15:00:00+00:00,0.0
2024-03-18 16:00:00+00:00,0.0
2024-03-18 17:00:00+00:00,0.0
2024-03-18 18:00:00+00:00,0.0
2024-03-18 19:00:00+00:00,0.0
2024-03-19 13:00:00+00:00,0.0
2024-03-19 14:00:00+00:00,0.0
2024-03-19 15:00:00+00:00,0.0
2024-03-19 16:00:00+00:00,0.0
2024-03-19 17:00:00+00:00,0.0
2024-03-19 18:00:00+00:00,0.0
2024-03-19 19:00:00+00:00,0.0
2024-03-20 13:00:00+00:00,0.0
2024-03-20 14:00:00+00:00,0.0
2024-03-20 15:00:00+00:00,0.0
2024-03-20 16:00:00+00:00,0.0
2024-03-20 17:00:00+00:00,0.0
2024-03-20 18:00:00+00:00,0.0
2024-03-20 19:00:00+00:00,0.0
2024-03-21 13:00:00+00:00,0.0
2024-03-21 14:00:00+00:00,0.0
2024-03-21 15:00:00+00:00,0.0
2024-03-21 16:00:00+00:00,0.0
2024-03-21 17:00:00+00:00,0.0
2024-03-21 18:00:00+00:00,0.0
2024-03-21 19:00:00+00:00,0.0
2024-03-22 13:00:00+00:00,0.0
2024-03-22 14:00:00+00:00,0.0
2024-03-22 15:00:00+00:00,0.0
2024-03-22 16:00:00+00:00,0.0
2024-03-22 17:00:00+00:00,0.0
2024-03-22 18:00:00+00:00,0.0
2024-03-22 19:00:00+00:00,0.0
2024-03-25 13:00:00+00:00,0.0
2024-03-25 14:00:00+00:00,0.0
2024-03-25 15:00:00+00:00,0.0
2024-03-25 16:00:00+00:00,0.0
2024-03-25 17:00:00+00:00,0.0
2024-03-25 18:00:00+00:00,0.0
2024-03-25 19:00:00+00:00,0.0
2024-03-26 13:00:00+00:00,0.0
2024-03-26 14:00:00+00:00,0.0
2024-03-26 15:00:00+00:00,0.0
2024-03-26 16:00:00+00:00,0.0
2024-03-26 17:00:00+00:00,0.0
2024-03-26 18:00:00+00:00,0.0
2024-03-26 19:00:00+00:00,0.0
2024-03-27 13:00:00+00:00,0.0
2024-03-27 14:00:00+00:00,0.0
2024-03-27 15:00:00+00:00,0.0
2024-03-27 16:00:00+00:00,0.0
2024-03-27 17:00:00+00:00,0.0
2024-03-27 18:00:00+00:00,0.0
2024-03-27 19:00:00+00:00,0.0
2024-03-28 13:00:00+00:00,0.0
2024-03-28 14:00:00+00:00,0.0
2024-03-28 15:00:00+00:00,0.0
2024-03-28 16:00:00+00:00,0.0
2024-03-28 17:00:00+00:00,0.0
2024-03-28 18:00:00+00:00,0.0
2024-03-28 19:00:00+00:00,0.0
2024-04-01 13:00:00+00:00,0.0
2024-04-01 14:00:00+00:00,0.0
2024-04-01 15:00:00+00:00,0.0
2024-04-01 16:00:00+00:00,0.0
2024-04-01 17:00:00+00:00,0.0
2024-04-01 18:00:00+00:00,0.0
2024-04-01 19:00:00+00:00,0.0
2024-04-02 13:00:00+00:00,0.0
2024-04-02 14:00:00+00:00,0.0
2024-04-02 15:00:00+00:00,0.0
2024-04-02 16:00:00+00:00,0.0
2024-04-02 17:00:00+00:00,0.0
2024-04-02 18:00:00+00:00,0.0
2024-04-02 19:00:00+00:00,0.0
2024-04-03 13:00:00+00:00,0.0
2024-04-03 14:00:00+00:00,0.0
2024-04-03 15:00:00+00:00,0.0
2024-04-03 16:00:00+00:00,0.0
2024-04-03 17:00:00+00:00,0.0
2024-04-03 18:00:00+00:00,0.0
2024-04-03 19:00:00+00:00,0.0
2024-04-04 13:00:00+00:00,0.0
2024-04-04 14:00:00+00:00,0.0
2024-04-04 15:00:00+00:00,0.0
2024-04-04 16:00:00+00:00,0.0
2024-04-04 17:00:00+00:00,0.0
2024-04-04 18:00:00+00:00,0.0
2024-04-04 19:00:00+00:00,0.0
2024-04-05 13:00:00+00:00,0.0
2024-04-05 14:00:00+00:00,0.0
2024-04-05 15:00:00+00:00,0.0
2024-04-05 16:00:00+00:00,0.0
2024-04-05 17:00:00+00:00,0.0
2024-04-05 18:00:00+00:00,0.0
2024-04-05 19:00:00+00:00,0.0
2024-04-08 13:00:00+00:00,0.0
2024-04-08 14:00:00+00:00,0.0
2024-04-08 15:00:00+00:00,0.0
2024-04-08 16:00:00+00:00,0.0
2024-04-08 17:00:00+00:00,0.0
2024-04-08 18:00:00+00:00,0.0
2024-04-08 19:00:00+00:00,0.0
2024-04-09 13:00:00+00:00,0.0
2024-04-09 14:00:00+00:00,0.0
2024-04-09 15:00:00+00:00,0.0
2024-04-09 16:00:00+00:00,0.0
2024-04-09 17:00:00+00:00,0.0
2024-04-09 18:00:00+00:00,0.0
2024-04-09 19:00:00+00:00,0.0
2024-04-10 13:00:00+00:00,0.0
2024-04-10 14:00:00+00:00,0.0
2024-04-10 15:00:00+00:00,0.0
2024-04-10 16:00:00+00:00,0.0
2024-04-10 17:00:00+00:00,0.0
2024-04-10 18:00:00+00:00,0.0
2024-04-10 19:00:00+00:00,0.0
2024-04-11 13:00:00+00:00,0.0
2024-04-11 14:00:00+00:00,0.0
2024-04-11 15:00:00+00:00,0.0
2024-04-11 16:00:00+00:00,0.0
2024-04-11 17:00:00+00:00,0.0
2024-04-11 18:00:00+00:00,0.0
2024-04-11 19:00:00+00:00,0.0
2024-04-12 13:00:00+00:00,0.0
2024-04-12 14:00:00+00:00,0.0
2024-04-12 15:00:00+00:00,0.0
2024-04-12 16:00:00+00:00,0.0
2024-04-12 17:00:00+00:00,0.0
2024-04-12 18:00:00+00:00,0.0
2024-04-12 19:00:00+00:00,0.0
2024-04-15 13:00:00+00:00,0.0
2024-04-15 14:00:00+00:00,0.0
2024-04-15 15:00:00+00:00,0.0
2024-04-15 16:00:00+00:00,0.0
2024-04-15 17:00:00+00:00,0.0
2024-04-15 18:00:00+00:00,0.0
2024-04-15 19:00:00+00:00,0.0
2024-04-16 13:00:00+00:00,0.0
2024-04-16 14:00:00+00:00,0.0
2024-04-16 15:00:00+00:00,0.0
2024-04-16 16:00:00+00:00,0.0
2024-04-16 17:00:00+00:00,0.0
2024-04-16 18:00:00+00:00,0.0
2024-04-16 19:00:00+00:00,0.0
2024-04-17 13:00:00+00:00,0.0
2024-04-17 14:00:00+00:00,0.0
2024-04-17 15:00:00+00:00,0.0
2024-04-17 16:00:00+00:00,0.0
2024-04-17 17:00:00+00:00,0.0
2024-04-17 18:00:00+00:00,0.0
2024-04-17 19:00:00+00:00,0.0
2024-04-18 13:00:00+00:00,0.0
2024-04-18 14:00:00+00:00,0.0
2024-04-18 15:00:00+00:00,0.0
2024-04-18 16:00:00+00:00,0.0
2024-04-18 17:00:00+00:00,0.0
2024-04-18 18:00:00+00:00,0.0
2024-04-18 19:00:00+00:00,0.0
2024-04-19 13:00:00+00:00,0.0
2024-04-19 14:00:00+00:00,0.0
2024-04-19 15:00:00+00:00,0.0
2024-04-19 16:00:00+00:00,0.0
2024-04-19 17:00:00+00:00,0.0
2024-04-19 18:00:00+00:00,0.0
2024-04-19 19:00:00+00:00,0.0
2024-04-22 13:00:00+00:00,0.0
2024-04-22 14:00:00+00:00,0.0
2024-04-22 15:00:00+00:00,0.0
2024-04-22 16:00:00+00:00,0.0
2024-04-22 17:00:00+00:00,0.0
2024-04-22 18:00:00+00:00,0.0
2024-04-22 19:00:00+00:00,0.0
2024-04-23 13:00:00+00:00,0.0
2024-04-23 14:00:00+00:00,0.0
2024-04-23 15:00:00+00:00,0.0
2024-04-23 16:00:00+00:00,0.0
2024-04-23 17:00:00+00:00,0.0
2024-04-23 18:00:00+00:00,0.0
2024-04-23 19:00:00+00:00,0.0
2024-04-24 13:00:00+00:00,0.0
2024-04-24 14:00:00+00:00,0.0
2024-04-24 15:00:00+00:00,0.0
2024-04-24 16:00:00+00:00,0.0
2024-04-24 17:00:00+00:00,0.0
2024-04-24 18:00:00+00:00,0.0
2024-04-24 19:00:00+00:00,0.0
2024-04-25 13:00:00+00:00,0.0
2024-04-25 14:00:00+00:00,0.0
2024-04-25 15:00:00+00:00,0.0
2024-04-25 16:00:00+00:00,0.0
2024-04-25 17:00:00+00:00,0.0
2024-04-25 18:00:00+00:00,0.0
2024-04-25 19:00:00+00:00,0.0
2024-04-26 13:00:00+00:00,0.0
2024-04-26 14:00:00+00:00,0.0
2024-04-26 15:00:00+00:00,0.0
2024-04-26 16:00:00+00:00,0.0
2024-04-26 17:00:00+00:00,0.0
2024-04-26 18:00:00+00:00,0.0
2024-04-26 19:00:00+00:00,0.0
2024-04-29 13:00:00+00:00,0.0
2024-04-29 14:00:00+00:00,0.0
2024-04-29 15:00:00+00:00,0.0
2024-04-29 16:00:00+00:00,0.0
2024-04-29 17:00:00+00:00,0.0
2024-04-29 18:00:00+00:00,0.0
2024-04-29 19:00:00+00:00,0.0
2024-04-30 13:00:00+00:00,0.0
2024-04-30 14:00:00+00:00,0.0
2024-04-30 15:00:00+00:00,0.0
2024-04-30 16:00:00+00:00,0.0
2024-04-30 17:00:00+00:00,0.0
2024-04-30 18:00:00+00:00,0.0
2024-04-30 19:00:00+00:00,0.0
2024-05-01 13:00:00+00:00,0.0
2024-05-01 14:00:00+00:00,0.0
2024-05-01 15:00:00+00:00,0.0
2024-05-01 16:00:00+00:00,0.0
2024-05-01 17:00:00+00:00,0.0
2024-05-01 18:00:00+00:00,0.0
2024-05-01 19:00:00+00:00,0.0
2024-05-02 13:00:00+00:00,0.0
2024-05-02 14:00:00+00:00,0.0
2024-05-02 15:00:00+00:00,0.0
2024-05-02 16:00:00+00:00,0.0
2024-05-02 17:00:00+00:00,0.0
2024-05-02 18:00:00+00:00,0.0
2024-05-02 19:00:00+00:00,0.0
2024-05-03 13:00:00+00:00,0.0
2024-05-03 14:00:00+00:00,0.0
2024-05-03 15:00:00+00:00,0.0
2024-05-03 16:00:00+00:00,0.0
2024-05-03 17:00:00+00:00,0.0
2024-05-03 18:00:00+00:00,0.0
2024-05-03 19:00:00+00:00,0.0
2024-05-06 13:00:00+00:00,0.0
2024-05-06 14:00:00+00:00,0.0
2024-05-06 15:00:00+00:00,0.0
2024-05-06 16:00:00+00:00,0.0
2024-05-06 17:00:00+00:00,0.0
2024-05-06 18:00:00+00:00,0.0
2024-05-06 19:00:00+00:00,0.0
2024-05-07 13:00:00+00:00,0.0
2024-05-07 14:00:00+00:00,0.0
2024-05-07 15:00:00+00:00,0.0
2024-05-07 16:00:00+00:00,0.0
2024-05-07 17:00:00+00:00,0.0
2024-05-07 18:00:00+00:00,0.0
2024-05-07 19:00:00+00:00,0.0
2024-05-08 13:00:00+00:00,0.0
2024-05-08 14:00:00+00:00,0.0
2024-05-08 15:00:00+00:00,0.0
2024-05-08 16:00:00+00:00,0.0
2024-05-08 17:00:00+00:00,0.0
2024-05-08 18:00:00+00:00,0.0
2024-05-08 19:00:00+00:00,0.0
2024-05-09 13:00:00+00:00,0.0
2024-05-09 14:00:00+00:00,0.0
2024-05-09 15:00:00+00:00,0.0
2024-05-09 16:00:00+00:00,0.0
2024-05-09 17:00:00+00:00,0.0
2024-05-09 18:00:00+00:00,0.0
2024-05-09 19:00:00+00:00,0.0
2024-05-10 13:00:00+00:00,0.0
2024-05-10 14:00:00+00:00,0.0
2024-05-10 15:00:00+00:00,0.0
2024-05-10 16:00:00+00:00,0.0
2024-05-10 17:00:00+00:00,0.0
2024-05-10 18:00:00+00:00,0.0
2024-05-10 19:00:00+00:00,0.0
2024-05-13 13:00:00+00:00,0.0
2024-05-13 14:00:00+00:00,0.0
2024-05-13 15:00:00+00:00,0.0
2024-05-13 16:00:00+00:00,0.0
2024-05-13 17:00:00+00:00,0.0
2024-05-13 18:00:00+00:00,0.0
2024-05-13 19:00:00+00:00,0.0
2024-05-14 13:00:00+00:00,0.0
2024-05-14 14:00:00+00:00,0.0
2024-05-14 15:00:00+00:00,0.0
2024-05-14 16:00:00+00:00,0.0
2024-05-14 17:00:00+00:00,0.0
2024-05-14 18:00:00+00:00,0.0
2024-05-14 19:00:00+00:00,0.0
2024-05-15 13:00:00+00:00,0.0
2024-05-15 14:00:00+00:00,0.0
2024-05-15 15:00:00+00:00,0.0
2024-05-15 16:00:00+00:00,0.0
2024-05-15 17:00:00+00:00,0.0
2024-05-15 18:00:00+00:00,0.0
2024-05-15 19:00:00+00:00,0.0
2024-05-16 13:00:00+00:00,0.0
2024-05-16 14:00:00+00:00,0.0
2024-05-16 15:00:00+00:00,0.0
2024-05-16 16:00:00+00:00,0.0
2024-05-16 17:00:00+00:00,0.0
2024-05-16 18:00:00+00:00,0.0
2024-05-16 19:00:00+00:00,0.0
2024-05-17 13:00:00+00:00,0.0
2024-05-17 14:00:00+00:00,0.0
2024-05-17 15:00:00+00:00,0.0
2024-05-17 16:00:00+00:00,0.0
2024-05-17 17:00:00+00:00,0.0
2024-05-17 18:00:00+00:00,0.0
2024-05-17 19:00:00+00:00,0.0
2024-05-20 13:00:00+00:00,0.0
2024-05-20 14:00:00+00:00,0.0
2024-05-20 15:00:00+00:00,0.0
2024-05-20 16:00:00+00:00,0.0
2024-05-20 17:00:00+00:00,0.0
2024-05-20 18:00:00+00:00,0.0
2024-05-20 19:00:00+00:00,0.0
2024-05-21 13:00:00+00:00,0.0
2024-05-21 14:00:00+00:00,0.0
2024-05-21 15:00:00+00:00,0.0
2024-05-21 16:00:00+00:00,0.0
2024-05-21 17:00:00+00:00,0.0
2024-05-21 18:00:00+00:00,0.0
2024-05-21 19:00:00+00:00,0.0
2024-05-22 13:00:00+00:00,0.0
2024-05-22 14:00:00+00:00,0.0
2024-05-22 15:00:00+00:00,0.0
2024-05-22 16:00:00+00:00,0.0
2024-05-22 17:00:00+00:00,0.0
2024-05-22 18:00:00+00:00,0.0
2024-05-22 19:00:00+00:00,0.0
2024-05-23 13:00:00+00:00,0.0
2024-05-23 14:00:00+00:00,0.0
2024-05-23 15:00:00+00:00,0.0
2024-05-23 16:00:00+00:00,0.0
2024-05-23 17:00:00+00:00,0.0
2024-05-23 18:00:00+00:00,0.0
2024-05-23 19:00:00+00:00,0.0
2024-05-24 13:00:00+00:00,0.0
2024-05-24 14:00:00+00:00,0.0
2024-05-24 15:00:00+00:00,0.0
2024-05-24 16:00:00+00:00,0.0
2024-05-24 17:00:00+00:00,0.0
2024-05-24 18:00:00+00:00,0.0
2024-05-24 19:00:00+00:00,0.0
2024-05-28 13:00:00+00:00,0.0
2024-05-28 14:00:00+00:00,0.0
2024-05-28 15:00:00+00:00,0.0
2024-05-28 16:00:00+00:00,0.0
2024-05-28 17:00:00+00:00,0.0
2024-05-28 18:00:00+00:00,0.0
2024-05-28 19:00:00+00:00,0.0
2024-05-29 13:00:00+00:00,0.0
2024-05-29 14:00:00+00:00,0.0
2024-05-29 15:00:00+00:00,0.0
2024-05-29 16:00:00+00:00,0.0
2024-05-29 17:00:00+00:00,0.0
2024-05-29 18:00:00+00:00,0.0
2024-05-29 19:00:00+00:00,0.0
2024-05-30 13:00:00+00:00,0.0
2024-05-30 14:00:00+00:00,0.0
2024-05-30 15:00:00+00:00,0.0
2024-05-30 16:00:00+00:00,0.0
2024-05-30 17:00:00+00:00,0.0
2024-05-30 18:00:00+00:00,0.0
2024-05-30 19:00:00+00:00,0.0
2024-05-31 13:00:00+00:00,0.0
2024-05-31 14:00:00+00:00,0.0
2024-05-31 15:00:00+00:00,0.0
2024-05-31 16:00:00+00:00,0.0
2024-05-31 17:00:00+00:00,0.0
2024-05-31 18:00:00+00:00,0.0
2024-05-31 19:00:00+00:00,0.0
2024-06-03 13:00:00+00:00,0.0
2024-06-03 14:00:00+00:00,0.0
2024-06-03 15:00:00+00:00,0.0
2024-06-03 16:00:00+00:00,0.0
2024-06-03 17:00:00+00:00,0.0
2024-06-03 18:00:00+00:00,0.0
2024-06-03 19:00:00+00:00,0.0
2024-06-04 13:00:00+00:00,0.0
2024-06-04 14:00:00+00:00,0.0
2024-06-04 15:00:00+00:00,0.0
2024-06-04 16:00:00+00:00,0.0
2024-06-04 17:00:00+00:00,0.0
2024-06-04 18:00:00+00:00,0.0
2024-06-04 19:00:00+00:00,0.0
2024-06-05 13:00:00+00:00,0.0
2024-06-05 14:00:00+00:00,0.0
2024-06-05 15:00:00+00:00,0.0
2024-06-05 16:00:00+00:00,0.0
2024-06-05 17:00:00+00:00,0.0
2024-06-05 18:00:00+00:00,0.0
2024-06-05 19:00:00+00:00,0.0
2024-06-06 13:00:00+00:00,0.0
2024-06-06 14:00:00+00:00,0.0
2024-06-06 15:00:00+00:00,-5.839513217540402
2024-06-06 16:00:00+00:00,-1.4303462778562226
2024-06-06 17:00:00+00:00,-1.5411941574925234
2024-06-06 18:00:00+00:00,2.22987356316936
2024-06-06 19:00:00+00:00,-1.9255980158210728
2024-06-07 13:00:00+00:00,-17.777779603524856
2024-06-07 14:00:00+00:00,-4.1938527728042345
2024-06-07 15:00:00+00:00,-7.020984166757197
2024-06-07 16:00:00+00:00,-10.864710083824052
2024-06-07 17:00:00+00:00,-3.882722594910767
2024-06-07 18:00:00+00:00,-2.8255995954803232
2024-06-07 19:00:00+00:00,31.039044039638735
2024-06-10 13:00:00+00:00,52.573707442103
2024-06-10 14:00:00+00:00,33.90264180776792
2024-06-10 15:00:00+00:00,29.024314177306124
2024-06-10 16:00:00+00:00,32.697418604452245
2024-06-10 17:00:00+00:00,38.52679401783509
2024-06-10 18:00:00+00:00,30.513963123123975
2024-06-10 19:00:00+00:00,29.348328941317043
2024-06-11 13:00:00+00:00,71.08346641148559
2024-06-11 14:00:00+00:00,47.90559241889977
2024-06-11 15:00:00+00:00,50.55792915926175
2024-06-11 16:00:00+00:00,51.9719635357288
2024-06-11 17:00:00+00:00,29.52252019238824
2024-06-11 18:00:00+00:00,36.06669076053704
2024-06-11 19:00:00+00:00,23.91665892428264
2024-06-12 13:00:00+00:00,-0.8245365660550981
2024-06-12 14:00:00+00:00,-12.795409659267062
2024-06-12 15:00:00+00:00,9.887212595354509
2024-06-12 16:00:00+00:00,7.492605051960366
2024-06-12 17:00:00+00:00,-3.0519729409234397
2024-06-12 18:00:00+00:00,0.6525156036136686
2024-06-12 19:00:00+00:00,7.698461947993275
2024-06-13 13:00:00+00:00,32.49517879257099
2024-06-13 14:00:00+00:00,35.94658746044762
2024-06-13 15:00:00+00:00,27.518887868592852
2024-06-13 16:00:00+00:00,35.93197956527379
2024-06-13 17:00:00+00:00,25.91465291177598
2024-06-13 18:00:00+00:00,32.48788088574014
2024-06-13 19:00:00+00:00,28.374005260712202
2024-06-14 13:00:00+00:00,29.958869744803756
2024-06-14 14:00:00+00:00,29.300590228547954
2024-06-14 15:00:00+00:00,20.06601713147964
2024-06-14 16:00:00+00:00,38.429076579450104
2024-06-14 17:00:00+00:00,34.908749942362235
2024-06-14 18:00:00+00:00,20.108438631261112
2024-06-14 19:00:00+00:00,-2.204387660206333
2024-06-17 13:00:00+00:00,12.324090981255162
2024-06-17 14:00:00+00:00,20.019004212639004
2024-06-17 15:00:00+00:00,0.008730725287559693
2024-06-17 16:00:00+00:00,-17.26537036388225
2024-06-17 17:00:00+00:00,-26.668056443375
2024-06-17 18:00:00+00:00,-40.590113592289896
2024-06-17 19:00:00+00:00,-28.920150462171176
2024-06-18 13:00:00+00:00,-44.95026352813923
2024-06-18 14:00:00+00:00,-54.33863532154282
2024-06-18 15:00:00+00:00,-55.40953991869408
2024-06-18 16:00:00+00:00,-30.654923450582732
2024-06-18 17:00:00+00:00,-40.432698563436446
2024-06-18 18:00:00+00:00,-58.9747507433255
2024-06-18 19:00:00+00:00,-52.32965052302913
2024-06-20 13:00:00+00:00,-67.1466269948199
2024-06-20 14:00:00+00:00,-50.512923570380394
2024-06-20 15:00:00+00:00,-44.553761033766506
2024-06-20 16:00:00+00:00,-59.30393543449876
2024-06-20 17:00:00+00:00,-58.22835325117266
2024-06-20 18:00:00+00:00,-77.60315992167605
2024-06-20 19:00:00+00:00,-76.33754762404214
2024-06-21 13:00:00+00:00,-73.54614178147582
2024-06-21 14:00:00+00:00,-87.21112975648492
2024-06-21 15:00:00+00:00,-87.16168742252394
2024-06-21 16:00:00+00:00,-69.87690292027786
2024-06-21 17:00:00+00:00,-64.36081002725504
2024-06-21 18:00:00+00:00,-76.17981072023954
2024-06-21 19:00:00+00:00,-75.08777418964483
2024-06-24 13:00:00+00:00,-44.861210388978904
2024-06-24 14:00:00+00:00,-39.12542657331363
2024-06-24 15:00:00+00:00,-56.45700282705736
2024-06-24 16:00:00+00:00,-41.985959002794985
2024-06-24 17:00:00+00:00,-51.96307905492533
2024-06-24 18:00:00+00:00,-38.63067925785143
2024-06-24 19:00:00+00:00,-43.677905069178834
2024-06-25 13:00:00+00:00,-34.24911586098917
2024-06-25 14:00:00+00:00,-59.152817334186736
2024-06-25 15:00:00+00:00,-50.15996323395547
2024-06-25 16:00:00+00:00,-60.280212294714566
2024-06-25 17:00:00+00:00,-56.26665083780102
2024-06-25 18:00:00+00:00,-53.13925693393593
2024-06-25 19:00:00+00:00,-66.3866183709876
2024-06-26 13:00:00+00:00,-100.98058966695768
2024-06-26 14:00:00+00:00,-94.88243093800759
2024-06-26 15:00:00+00:00,-102.8975060221961
2024-06-26 16:00:00+00:00,-95.07123008425077
2024-06-26 17:00:00+00:00,-86.09084393723386
2024-06-26 18:00:00+00:00,-92.33407159640149
2024-06-26 19:00:00+00:00,-84.55603137213151
2024-06-27 13:00:00+00:00,-70.27004646692046
2024-06-27 14:00:00+00:00,-69.56832234889377
2024-06-27 15:00:00+00:00,-71.79928443424708
2024-06-27 16:00:00+00:00,-65.73948585456843
2024-06-27 17:00:00+00:00,-67.01625942926717
2024-06-27 18:00:00+00:00,-61.294016031128024
2024-06-27 19:00:00+00:00,-64.90611587992454
2024-06-28 13:00:00+00:00,-75.7585358171226
2024-06-28 14:00:00+00:00,-74.90900510429356
2024-06-28 15:00:00+00:00,-80.87750853602408
2024-06-28 16:00:00+00:00,-71.68163098877291
2024-06-28 17:00:00+00:00,-100.77210036875545
2024-06-28 18:00:00+00:00,-107.89070490954062
2024-06-28 19:00:00+00:00,-106.10285281515502
2024-07-01 13:00:00+00:00,-125.92885494098951
2024-07-01 14:00:00+00:00,-119.29212360359772
2024-07-01 15:00:00+00:00,-117.53064408397003
2024-07-01 16:00:00+00:00,-130.1445435407958
2024-07-01 17:00:00+00:00,-126.52189789896649
2024-07-01 18:00:00+00:00,-139.80617770380886
2024-07-01 19:00:00+00:00,-133.97895463289444
2024-07-02 13:00:00+00:00,-167.92946292548572
2024-07-02 14:00:00+00:00,-173.37027730144695
2024-07-02 15:00:00+00:00,-159.38136329871037
2024-07-02 16:00:00+00:00,-160.3056359903589
2024-07-02 17:00:00+00:00,-153.77435000832946
2024-07-02 18:00:00+00:00,-163.72274661110268
2024-07-02 19:00:00+00:00,-149.49948959329578
2024-07-03 13:00:00+00:00,-120.57234379640431
2024-07-03 14:00:00+00:00,-118.66427656852666
2024-07-03 15:00:00+00:00,-129.10062700243142
2024-07-05 13:00:00+00:00,-160.90008198990287
2024-07-05 14:00:00+00:00,-167.0378478940594
2024-07-05 15:00:00+00:00,-161.97394086417384
2024-07-05 16:00:00+00:00,-159.88053318967113
2024-07-05 17:00:00+00:00,-154.60164096269435
2024-07-05 18:00:00+00:00,-146.50681896620662
2024-07-05 19:00:00+00:00,-145.26729771575867
2024-07-08 13:00:00+00:00,-180.58027377447831
2024-07-08 14:00:00+00:00,-189.9149388963613
2024-07-08 15:00:00+00:00,-187.89480490229613
2024-07-08 16:00:00+00:00,-180.90986313626496
2024-07-08 17:00:00+00:00,-177.89036283491703
2024-07-08 18:00:00+00:00,-167.64342703128622
2024-07-08 19:00:00+00:00,-188.7906212367741
2024-07-09 13:00:00+00:00,-222.27024552953318
2024-07-09 14:00:00+00:00,-231.69168440200505
2024-07-09 15:00:00+00:00,-219.3255717516335
2024-07-09 16:00:00+00:00,-223.9921339318254
2024-07-09 17:00:00+00:00,-229.06047959508228
2024-07-09 18:00:00+00:00,-231.25977603547693
2024-07-09 19:00:00+00:00,-237.29844268171334
2024-07-10 13:00:00+00:00,-233.42275751060075
2024-07-10 14:00:00+00:00,-226.17559150898163
2024-07-10 15:00:00+00:00,-228.7546424873963
2024-07-10 16:00:00+00:00,-215.90846113088853
2024-07-10 17:00:00+00:00,-219.95861360828422
2024-07-10 18:00:00+00:00,-195.6415783531021
2024-07-10 19:00:00+00:00,-200.6133621569498
2024-07-11 13:00:00+00:00,-203.9932204534434
2024-07-11 14:00:00+00:00,-230.13422740782514
2024-07-11 15:00:00+00:00,-217.35606700892652
2024-07-11 16:00:00+00:00,-218.44720652791855
2024-07-11 17:00:00+00:00,-228.3401448842534
2024-07-11 18:00:00+00:00,-209.4362222135846
2024-07-11 19:00:00+00:00,-219.65959565121523
2024-07-12 13:00:00+00:00,-254.06572608524073
2024-07-12 14:00:00+00:00,-256.7152026812928
2024-07-12 15:00:00+00:00,-243.83491067241846
2024-07-12 16:00:00+00:00,-256.66554677477126
2024-07-12 17:00:00+00:00,-262.9784252311098
2024-07-12 18:00:00+00:00,-273.0818980696499
2024-07-12 19:00:00+00:00,-287.72745501993325
2024-07-15 13:00:00+00:00,-371.23935007725527
2024-07-15 14:00:00+00:00,-404.75733451928704
2024-07-15 15:00:00+00:00,-420.75104645287223
2024-07-15 16:00:00+00:00,-406.7316873142084
2024-07-15 17:00:00+00:00,-419.84908585632195
2024-07-15 18:00:00+00:00,-415.5507667962735
2024-07-15 19:00:00+00:00,-381.6530560820855
2024-07-16 13:00:00+00:00,-364.7065395180784
2024-07-16 14:00:00+00:00,-344.87386355252875
2024-07-16 15:00:00+00:00,-332.3361920532572
2024-07-16 16:00:00+00:00,-317.3879688038857
2024-07-16 17:00:00+00:00,-313.3018424125237
2024-07-16 18:00:00+00:00,-312.18277747576246
2024-07-16 19:00:00+00:00,-309.0292925247114
2024-07-17 13:00:00+00:00,-264.5390946388279
2024-07-17 14:00:00+00:00,-277.55011207405903
2024-07-17 15:00:00+00:00,-292.75923532899924
2024-07-17 16:00:00+00:00,-294.2406348316644
2024-07-17 17:00:00+00:00,-291.5352189853266
2024-07-17 18:00:00+00:00,-294.918325168024
2024-07-17 19:00:00+00:00,-304.6195504483731
2024-07-18 13:00:00+00:00,-298.80725714758046
2024-07-18 14:00:00+00:00,-306.3577700548931
2024-07-18 15:00:00+00:00,-305.39180478313864
2024-07-18 16:00:00+00:00,-305.6824305931334
2024-07-18 17:00:00+00:00,-300.9956738384804
2024-07-18 18:00:00+00:00,-290.1125017408664
2024-07-18 19:00:00+00:00,-275.5927059673987
2024-07-19 13:00:00+00:00,-271.2280049598668
2024-07-19 14:00:00+00:00,-259.50577356826284
2024-07-19 15:00:00+00:00,-257.2648811739069
2024-07-19 16:00:00+00:00,-245.6098074665339
2024-07-19 17:00:00+00:00,-234.8306612097734
2024-07-19 18:00:00+00:00,-226.99445334034405
2024-07-19 19:00:00+00:00,-248.73220190927742
2024-07-22 13:00:00+00:00,-274.0640240795901
2024-07-22 14:00:00+00:00,-267.4298036087872
2024-07-22 15:00:00+00:00,-273.1942987922981
2024-07-22 16:00:00+00:00,-270.7944385260762
2024-07-22 17:00:00+00:00,-250.11702049539738
2024-07-22 18:00:00+00:00,-250.35951423164906
2024-07-22 19:00:00+00:00,-239.29035764892583
2024-07-23 13:00:00+00:00,-222.5333810539508
2024-07-23 14:00:00+00:00,-220.78830125698505
2024-07-23 15:00:00+00:00,-234.70510568307336
2024-07-23 16:00:00+00:00,-236.21343841506555
2024-07-23 17:00:00+00:00,-240.2264916463006
2024-07-23 18:00:00+00:00,-222.78076571480582
2024-07-23 19:00:00+00:00,-219.75932657025638
2024-07-24 13:00:00+00:00,-230.47480758063404
2024-07-24 14:00:00+00:00,-215.7078973050613
2024-07-24 15:00:00+00:00,-220.71848627617112
2024-07-24 16:00:00+00:00,-218.6247446452065
2024-07-24 17:00:00+00:00,-226.33549673982756
2024-07-24 18:00:00+00:00,-217.40926925794273
2024-07-24 19:00:00+00:00,-216.36273239892293
2024-07-25 13:00:00+00:00,-263.52920592966274
2024-07-25 14:00:00+00:00,-277.53667574243656
2024-07-25 15:00:00+00:00,-304.49493228065427
2024-07-25 16:00:00+00:00,-297.6360617734634
2024-07-25 17:00:00+00:00,-277.63604047005884
2024-07-25 18:00:00+00:00,-301.6463874256877
2024-07-25 19:00:00+00:00,-301.6314576555653
2024-07-26 13:00:00+00:00,-283.0962110415172
2024-07-26 14:00:00+00:00,-283.1328478817354
2024-07-26 15:00:00+00:00,-292.2548505417458
2024-07-26 16:00:00+00:00,-306.6094718885993
2024-07-26 17:00:00+00:00,-317.11474029171774
2024-07-26 18:00:00+00:00,-324.4292714195368
2024-07-26 19:00:00+00:00,-315.46440226080796
2024-07-29 13:00:00+00:00,-299.8519115411415
2024-07-29 14:00:00+00:00,-285.7717956134767
2024-07-29 15:00:00+00:00,-293.1734223668307
2024-07-29 16:00:00+00:00,-300.606726846658
2024-07-29 17:00:00+00:00,-297.0045976542395
2024-07-29 18:00:00+00:00,-308.7596394917547
2024-07-29 19:00:00+00:00,-305.0938450529515
2024-07-30 13:00:00+00:00,-304.1331728514027
2024-07-30 14:00:00+00:00,-316.66616676450184
2024-07-30 15:00:00+00:00,-324.77978190134405
2024-07-30 16:00:00+00:00,-334.145843222132
2024-07-30 17:00:00+00:00,-338.6655240849887
2024-07-30 18:00:00+00:00,-345.49445225627363
2024-07-30 19:00:00+00:00,-312.7341142538348
2024-07-31 13:00:00+00:00,-280.3698861566698
2024-07-31 14:00:00+00:00,-268.9605540717486
2024-07-31 15:00:00+00:00,-273.3377214100098
2024-07-31 16:00:00+00:00,-279.345044286233
2024-07-31 17:00:00+00:00,-296.51674991820755
2024-07-31 18:00:00+00:00,-303.8403907958756
2024-07-31 19:00:00+00:00,-281.5492998403702
2024-08-01 13:00:00+00:00,-291.7749332445174
2024-08-01 14:00:00+00:00,-279.2662667221719
2024-08-01 15:00:00+00:00,-248.95301196658318
2024-08-01 16:00:00+00:00,-241.08005570704063
2024-08-01 17:00:00+00:00,-243.16721438358866
2024-08-01 18:00:00+00:00,-238.23083645189513
2024-08-01 19:00:00+00:00,-249.78002139337676
2024-08-02 13:00:00+00:00,-339.0340417570808
2024-08-02 14:00:00+00:00,-363.55792916852636
2024-08-02 15:00:00+00:00,-324.3698430753483
2024-08-02 16:00:00+00:00,-323.2262399344148
2024-08-02 17:00:00+00:00,-322.09756656360196
2024-08-02 18:00:00+00:00,-336.71983533491067
2024-08-02 19:00:00+00:00,-353.1041870283682
2024-08-05 13:00:00+00:00,-412.2672638797838
2024-08-05 14:00:00+00:00,-439.7002960539321
2024-08-05 15:00:00+00:00,-444.95560649285136
2024-08-05 16:00:00+00:00,-415.7814197379013
2024-08-05 17:00:00+00:00,-425.4356135482059
2024-08-05 18:00:00+00:00,-421.23525778167374
2024-08-05 19:00:00+00:00,-419.4585669643523
2024-08-06 13:00:00+00:00,-391.61553222568057
2024-08-06 14:00:00+00:00,-379.8686853065972
2024-08-06 15:00:00+00:00,-363.39305274242156
2024-08-06 16:00:00+00:00,-354.7970704537332
2024-08-06 17:00:00+00:00,-366.89430471158425
2024-08-06 18:00:00+00:00,-354.8281326961769
2024-08-06 19:00:00+00:00,-329.41555639104286
2024-08-07 13:00:00+00:00,-343.6152316207917
2024-08-07 14:00:00+00:00,-343.260659036841
2024-08-07 15:00:00+00:00,-331.4739394728508
2024-08-07 16:00:00+00:00,-323.25318802922277
2024-08-07 17:00:00+00:00,-326.0435004238823
2024-08-07 18:00:00+00:00,-317.82165772806036
2024-08-07 19:00:00+00:00,-315.7496635145718
2024-08-08 13:00:00+00:00,-375.87256287893337
2024-08-08 14:00:00+00:00,-387.03907935265494
2024-08-08 15:00:00+00:00,-411.54885120991656
2024-08-08 16:00:00+00:00,-406.6174444734789
2024-08-08 17:00:00+00:00,-393.2249371096599
2024-08-08 18:00:00+00:00,-392.85280235341804
2024-08-08 19:00:00+00:00,-411.94351933370723
2024-08-09 13:00:00+00:00,-392.2628231266279
2024-08-09 14:00:00+00:00,-392.13056178597867
2024-08-09 15:00:00+00:00,-392.2038354664168
2024-08-09 16:00:00+00:00,-388.4908583943627
2024-08-09 17:00:00+00:00,-393.4064383490741
2024-08-09 18:00:00+00:00,-383.8239743392223
2024-08-09 19:00:00+00:00,-385.2637778879268
2024-08-12 13:00:00+00:00,-407.54928216414424
2024-08-12 14:00:00+00:00,-393.86616107184267
2024-08-12 15:00:00+00:00,-403.88348772534175
2024-08-12 16:00:00+00:00,-399.75968179131235
2024-08-12 17:00:00+00:00,-405.11446801938143
2024-08-12 18:00:00+00:00,-404.21743279835226
2024-08-12 19:00:00+00:00,-417.86556126711366
2024-08-13 13:00:00+00:00,-403.2102641617366
2024-08-13 14:00:00+00:00,-390.20343197168677
2024-08-13 15:00:00+00:00,-400.12044445706954
2024-08-13 16:00:00+00:00,-397.2038786444932
2024-08-13 17:00:00+00:00,-402.40855983205313
2024-08-13 18:00:00+00:00,-395.15240088041554
2024-08-13 19:00:00+00:00,-389.9101454936576
2024-08-14 13:00:00+00:00,-391.27544439386236
2024-08-14 14:00:00+00:00,-367.4812185997273
2024-08-14 15:00:00+00:00,-362.99258789779907
2024-08-14 16:00:00+00:00,-354.12211227143723
2024-08-14 17:00:00+00:00,-349.76077171489993
2024-08-14 18:00:00+00:00,-354.55402063796413
2024-08-14 19:00:00+00:00,-356.3738723337721
2024-08-15 13:00:00+00:00,-352.84361451683304
2024-08-15 14:00:00+00:00,-352.0625576260768
2024-08-15 15:00:00+00:00,-355.54362710228867
2024-08-15 16:00:00+00:00,-352.74909871227726
2024-08-15 17:00:00+00:00,-354.66799326075903
2024-08-15 18:00:00+00:00,-350.7131258549743
2024-08-15 19:00:00+00:00,-338.89474064602365
2024-08-16 13:00:00+00:00,-352.90774470919473
2024-08-16 14:00:00+00:00,-346.64241110843176
2024-08-16 15:00:00+00:00,-339.41993471989326
2024-08-16 16:00:00+00:00,-337.41268531194623
2024-08-16 17:00:00+00:00,-341.8373571584069
2024-08-16 18:00:00+00:00,-331.5221188695963
2024-08-16 19:00:00+00:00,-337.3018374323118
2024-08-19 13:00:00+00:00,-353.64663835580984
2024-08-19 14:00:00+00:00,-338.50259386287365
2024-08-19 15:00:00+00:00,-336.7525974952575
2024-08-19 16:00:00+00:00,-324.1215999412648
2024-08-19 17:00:00+00:00,-316.79151147778043
2024-08-19 18:00:00+00:00,-302.8377886839045
2024-08-19 19:00:00+00:00,-320.3837507085778
2024-08-20 13:00:00+00:00,-293.06837197990365
2024-08-20 14:00:00+00:00,-287.68543743913216
2024-08-20 15:00:00+00:00,-305.0510181309259
2024-08-20 16:00:00+00:00,-306.50075198863124
2024-08-20 17:00:00+00:00,-291.1385694160633
2024-08-20 18:00:00+00:00,-281.30011159980853
2024-08-20 19:00:00+00:00,-276.5309085399273
2024-08-21 13:00:00+00:00,-287.8944190783256
2024-08-21 14:00:00+00:00,-306.81655975269473
2024-08-21 15:00:00+00:00,-308.3965380329113
2024-08-21 16:00:00+00:00,-303.9275974829409
2024-08-21 17:00:00+00:00,-304.40266672795497
2024-08-21 18:00:00+00:00,-289.37536658737935
2024-08-21 19:00:00+00:00,-276.50481749274076
2024-08-22 13:00:00+00:00,-301.3934186105552
2024-08-22 14:00:00+00:00,-302.8622674835654
2024-08-22 15:00:00+00:00,-301.0737595577706
2024-08-22 16:00:00+00:00,-290.4074850392759
2024-08-22 17:00:00+00:00,-292.53521208628075
2024-08-22 18:00:00+00:00,-287.85282312436317
2024-08-22 19:00:00+00:00,-269.55917323496345
2024-08-23 13:00:00+00:00,-283.9498159380025
2024-08-23 14:00:00+00:00,-286.41178860759595
2024-08-23 15:00:00+00:00,-284.9991673582688
2024-08-23 16:00:00+00:00,-290.1238686680467
2024-08-23 17:00:00+00:00,-290.99950250957636
2024-08-23 18:00:00+00:00,-282.3140858022647
2024-08-23 19:00:00+00:00,-279.1866918984002
2024-08-26 13:00:00+00:00,-287.152172866267
2024-08-26 14:00:00+00:00,-292.9004302151536
2024-08-26 15:00:00+00:00,-303.75318410881175
2024-08-26 16:00:00+00:00,-316.53072902367774
2024-08-26 17:00:00+00:00,-311.80316226513617
2024-08-26 18:00:00+00:00,-313.3086479783627
2024-08-26 19:00:00+00:00,-317.048037972552
2024-08-27 13:00:00+00:00,-358.80024527401986
2024-08-27 14:00:00+00:00,-349.8983855302671
2024-08-27 15:00:00+00:00,-314.6183181660859
2024-08-27 16:00:00+00:00,-320.4197720647635
2024-08-27 17:00:00+00:00,-313.58494742075493
2024-08-27 18:00:00+00:00,-312.2771116036162
2024-08-27 19:00:00+00:00,-302.8213343366361
2024-08-28 13:00:00+00:00,-330.2620811697396
2024-08-28 14:00:00+00:00,-356.3130785688432
2024-08-28 15:00:00+00:00,-349.58445248416234
2024-08-28 16:00:00+00:00,-357.43149975570736
2024-08-28 17:00:00+00:00,-355.90226178838014
2024-08-28 18:00:00+00:00,-354.237808203287
2024-08-28 19:00:00+00:00,-322.68737099033683
2024-08-29 13:00:00+00:00,-334.7408409671808
2024-08-29 14:00:00+00:00,-318.8722453795838
2024-08-29 15:00:00+00:00,-305.30789763929226
2024-08-29 16:00:00+00:00,-298.3308692641239
2024-08-29 17:00:00+00:00,-286.0802417321838
2024-08-29 18:00:00+00:00,-266.2594080744063
2024-08-29 19:00:00+00:00,-276.88809013489697
2024-08-30 13:00:00+00:00,-263.34822119426565
2024-08-30 14:00:00+00:00,-263.19478338114413
2024-08-30 15:00:00+00:00,-271.6383542937541
2024-08-30 16:00:00+00:00,-263.0848892335445
2024-08-30 17:00:00+00:00,-274.54934550855404
2024-08-30 18:00:00+00:00,-278.9780511912901
2024-08-30 19:00:00+00:00,-255.13541179584186
2024-09-03 13:00:00+00:00,-293.49124704903375
2024-09-03 14:00:00+00:00,-261.7593206781828
2024-09-03 15:00:00+00:00,-253.09408646382064
2024-09-03 16:00:00+00:00,-255.78366344692185
2024-09-03 17:00:00+00:00,-264.74418897593773
2024-09-03 18:00:00+00:00,-246.48189493806268
2024-09-03 19:00:00+00:00,-206.48151837479358
2024-09-04 13:00:00+00:00,-220.80709439734196
2024-09-04 14:00:00+00:00,-220.13765140830714
2024-09-04 15:00:00+00:00,-205.6062184897265
2024-09-04 16:00:00+00:00,-209.61977994663943
2024-09-04 17:00:00+00:00,-210.14173821582227
2024-09-04 18:00:00+00:00,-218.71753801156166
2024-09-04 19:00:00+00:00,-228.80673691138924
2024-09-05 13:00:00+00:00,-239.98238566252428
2024-09-05 14:00:00+00:00,-216.54027051621318
2024-09-05 15:00:00+00:00,-224.26652751760892
2024-09-05 16:00:00+00:00,-224.6224224432885
2024-09-05 17:00:00+00:00,-221.31923341905207
2024-09-05 18:00:00+00:00,-223.92466905373556
2024-09-05 19:00:00+00:00,-225.48618815005526
2024-09-06 13:00:00+00:00,-210.4509746186186
2024-09-06 14:00:00+00:00,-208.66491654743777
2024-09-06 15:00:00+00:00,-230.75136949346148
2024-09-06 16:00:00+00:00,-235.4891884359524
2024-09-06 17:00:00+00:00,-232.1911730421654
2024-09-06 18:00:00+00:00,-231.1700713989217
2024-09-06 19:00:00+00:00,-236.14078772512352
2024-09-09 13:00:00+00:00,-255.0434794277277
2024-09-09 14:00:00+00:00,-253.31429311860768
2024-09-09 15:00:00+00:00,-268.6521079530417
2024-09-09 16:00:00+00:00,-265.7044798980248
2024-09-09 17:00:00+00:00,-265.315589964105
2024-09-09 18:00:00+00:00,-261.31442797364485
2024-09-09 19:00:00+00:00,-261.3229568485391
2024-09-10 13:00:00+00:00,-261.3570844296288
2024-09-10 14:00:00+00:00,-275.2518195632943
2024-09-10 15:00:00+00:00,-263.73257695771923
2024-09-10 16:00:00+00:00,-254.98166234078877
2024-09-10 17:00:00+00:00,-260.61371192874714
2024-09-10 18:00:00+00:00,-270.53623713430113
2024-09-10 19:00:00+00:00,-267.6851459177965
2024-09-11 13:00:00+00:00,-246.9043293232188
2024-09-11 14:00:00+00:00,-288.1920131727049
2024-09-11 15:00:00+00:00,-280.45582586230705
2024-09-11 16:00:00+00:00,-279.684849818606
2024-09-11 17:00:00+00:00,-277.77556370417466
2024-09-11 18:00:00+00:00,-268.46960995013484
2024-09-11 19:00:00+00:00,-284.30948208837526
2024-09-12 13:00:00+00:00,-262.8488592592853
2024-09-12 14:00:00+00:00,-268.7563723898956
2024-09-12 15:00:00+00:00,-289.35083969284466
2024-09-12 16:00:00+00:00,-275.270108281146
2024-09-12 17:00:00+00:00,-278.2074720707033
2024-09-12 18:00:00+00:00,-278.6136233465043
2024-09-12 19:00:00+00:00,-284.3804573231023
2024-09-13 13:00:00+00:00,-304.5188189874332
2024-09-13 14:00:00+00:00,-297.02278662020177
2024-09-13 15:00:00+00:00,-283.10508518251015
2024-09-13 16:00:00+00:00,-287.408656965387
2024-09-13 17:00:00+00:00,-288.3848744210908
2024-09-13 18:00:00+00:00,-308.95809959991806
2024-09-13 19:00:00+00:00,-307.2908543572754
2024-09-16 13:00:00+00:00,-301.260887051974
2024-09-16 14:00:00+00:00,-296.75764845487316
2024-09-16 15:00:00+00:00,-298.6155384250059
2024-09-16 16:00:00+00:00,-296.9094888859515
2024-09-16 17:00:00+00:00,-310.92687692621274
2024-09-16 18:00:00+00:00,-314.8764916091697
2024-09-16 19:00:00+00:00,-314.57561361522744
2024-09-17 13:00:00+00:00,-269.00393707329357
2024-09-17 14:00:00+00:00,-255.7454143591783
2024-09-17 15:00:00+00:00,-249.0472350329073
2024-09-17 16:00:00+00:00,-233.78007355824994
2024-09-17 17:00:00+00:00,-240.95209116147043
2024-09-17 18:00:00+00:00,-242.3097581983843
2024-09-17 19:00:00+00:00,-257.9068429912884
2024-09-18 13:00:00+00:00,-256.0579459711753
2024-09-18 14:00:00+00:00,-274.62842799133557
2024-09-18 15:00:00+00:00,-273.8382068136667
2024-09-18 16:00:00+00:00,-272.05690353274565
2024-09-18 17:00:00+00:00,-268.694700670499
2024-09-18 18:00:00+00:00,-278.7677791795199
2024-09-18 19:00:00+00:00,-293.22885234740363
2024-09-19 13:00:00+00:00,-281.9038724243206
2024-09-19 14:00:00+00:00,-288.30556981524916
2024-09-19 15:00:00+00:00,-269.8344525227106
2024-09-19 16:00:00+00:00,-273.7550218813661
2024-09-19 17:00:00+00:00,-248.758849035983
2024-09-19 18:00:00+00:00,-260.35553848566354
2024-09-19 19:00:00+00:00,-245.9692514938496
2024-09-20 13:00:00+00:00,-225.46047838233198
2024-09-20 14:00:00+00:00,-228.62450912641464
2024-09-20 15:00:00+00:00,-214.611798672327
2024-09-20 16:00:00+00:00,-223.89043041111682
2024-09-20 17:00:00+00:00,-228.49754085597104
2024-09-20 18:00:00+00:00,-230.80907452859398
2024-09-20 19:00:00+00:00,-297.68307394067136
2024-09-23 13:00:00+00:00,-368.7836785509991
2024-09-23 14:00:00+00:00,-413.7351520026625
2024-09-23 15:00:00+00:00,-436.6878715363571
2024-09-23 16:00:00+00:00,-418.65700571296014
2024-09-23 17:00:00+00:00,-402.80321587432985
2024-09-23 18:00:00+00:00,-400.0529279219637
2024-09-23 19:00:00+00:00,-389.02213148851257
2024-09-24 13:00:00+00:00,-397.8254124547176
2024-09-24 14:00:00+00:00,-388.73709235780626
2024-09-24 15:00:00+00:00,-406.0371305010613
2024-09-24 16:00:00+00:00,-413.6298787208033
2024-09-24 17:00:00+00:00,-416.33234029002256
2024-09-24 18:00:00+00:00,-432.9786346914967
2024-09-24 19:00:00+00:00,-430.72715615673013
2024-09-25 13:00:00+00:00,-419.65393747186585
2024-09-25 14:00:00+00:00,-417.03327845797713
2024-09-25 15:00:00+00:00,-404.1088643072905
2024-09-25 16:00:00+00:00,-415.9700764382671
2024-09-25 17:00:00+00:00,-420.1704322048005
2024-09-25 18:00:00+00:00,-423.5541417900159
2024-09-25 19:00:00+00:00,-428.6221655783248
2024-09-26 13:00:00+00:00,-421.7693146868997
2024-09-26 14:00:00+00:00,-418.5586764462202
2024-09-26 15:00:00+00:00,-397.15844271144846
2024-09-26 16:00:00+00:00,-399.6744439275105
2024-09-26 17:00:00+00:00,-405.82367692580937
2024-09-26 18:00:00+00:00,-396.70601789551137
2024-09-26 19:00:00+00:00,-401.58434552597254
2024-09-27 13:00:00+00:00,-392.2903793464488
2024-09-27 14:00:00+00:00,-374.5177503672495
2024-09-27 15:00:00+00:00,-385.3661485496838
2024-09-27 16:00:00+00:00,-378.837482888311
2024-09-27 17:00:00+00:00,-397.4792216707697
2024-09-27 18:00:00+00:00,-392.2601030540798
2024-09-27 19:00:00+00:00,-382.54833198069787
2024-09-30 13:00:00+00:00,-379.2942513339599
2024-09-30 14:00:00+00:00,-404.98021315174606
2024-09-30 15:00:00+00:00,-386.561213038543
2024-09-30 16:00:00+00:00,-380.48364775555046
2024-09-30 17:00:00+00:00,-369.4309334385843
2024-09-30 18:00:00+00:00,-364.10626001246317
2024-09-30 19:00:00+00:00,-379.55230240587747
2024-10-01 13:00:00+00:00,-375.9206828711657
2024-10-01 14:00:00+00:00,-381.1613854149099
2024-10-01 15:00:00+00:00,-367.6237321243242
2024-10-01 16:00:00+00:00,-366.4258189093515
2024-10-01 17:00:00+00:00,-375.97660519272824
2024-10-01 18:00:00+00:00,-389.930236347134
2024-10-01 19:00:00+00:00,-369.7000820490378
2024-10-02 13:00:00+00:00,-364.9736351970322
2024-10-02 14:00:00+00:00,-356.85361916496123
2024-10-02 15:00:00+00:00,-377.98252735791505
2024-10-02 16:00:00+00:00,-373.9221731515321
2024-10-02 17:00:00+00:00,-375.38043588413103
2024-10-02 18:00:00+00:00,-379.23381058262675
2024-10-02 19:00:00+00:00,-385.4619322065174
2024-10-03 13:00:00+00:00,-366.6901194675901
2024-10-03 14:00:00+00:00,-400.85422758103385
2024-10-03 15:00:00+00:00,-401.660327969319
2024-10-03 16:00:00+00:00,-426.6990462091579
2024-10-03 17:00:00+00:00,-413.4405234950396
2024-10-03 18:00:00+00:00,-399.24663367648697
2024-10-03 19:00:00+00:00,-398.6369360318721
2024-10-04 13:00:00+00:00,-414.0779130972225
2024-10-04 14:00:00+00:00,-416.7458771430341
2024-10-04 15:00:00+00:00,-422.7954524297781
2024-10-04 16:00:00+00:00,-416.4596191257766
2024-10-04 17:00:00+00:00,-414.6336884096896
2024-10-04 18:00:00+00:00,-408.57388983001096
2024-10-04 19:00:00+00:00,-404.1397517496761
2024-10-07 13:00:00+00:00,-455.01428358610417
2024-10-07 14:00:00+00:00,-466.40753402521483
2024-10-07 15:00:00+00:00,-480.3374254726161
2024-10-07 16:00:00+00:00,-467.8492753996808
2024-10-07 17:00:00+00:00,-458.9318986676399
2024-10-07 18:00:00+00:00,-460.6930845781854
2024-10-07 19:00:00+00:00,-443.91809859721377
2024-10-08 13:00:00+00:00,-437.7591694944837
2024-10-08 14:00:00+00:00,-455.6343990059939
2024-10-08 15:00:00+00:00,-439.5212927640097
2024-10-08 16:00:00+00:00,-425.09358028427584
2024-10-08 17:00:00+00:00,-438.46884735075224
2024-10-08 18:00:00+00:00,-450.89366613376353
2024-10-08 19:00:00+00:00,-452.25133317067616
2024-10-09 13:00:00+00:00,-470.95760594525774
2024-10-09 14:00:00+00:00,-463.6418438493759
2024-10-09 15:00:00+00:00,-463.5313178446894
2024-10-09 16:00:00+00:00,-454.61861869882034
2024-10-09 17:00:00+00:00,-461.5748490970083
2024-10-09 18:00:00+00:00,-465.381938173857
2024-10-09 19:00:00+00:00,-468.84187571662727
2024-10-10 13:00:00+00:00,-452.8288918864737
2024-10-10 14:00:00+00:00,-449.0748819155997
2024-10-10 15:00:00+00:00,-444.96601783320483
2024-10-10 16:00:00+00:00,-450.2663235211933
2024-10-10 17:00:00+00:00,-469.83148218095187
2024-10-10 18:00:00+00:00,-477.0777108235898
2024-10-10 19:00:00+00:00,-483.496144089359
2024-10-11 13:00:00+00:00,-529.514055365421
2024-10-11 14:00:00+00:00,-547.4397436622498
2024-10-11 15:00:00+00:00,-548.4361556924135
2024-10-11 16:00:00+00:00,-568.0458645832531
2024-10-11 17:00:00+00:00,-543.8788885488448
2024-10-11 18:00:00+00:00,-544.6334102452778
2024-10-11 19:00:00+00:00,-551.8696803130505
2024-10-14 13:00:00+00:00,-540.6229141270109
2024-10-14 14:00:00+00:00,-536.7251596634761
2024-10-14 15:00:00+00:00,-525.3501659730645
2024-10-14 16:00:00+00:00,-538.7710628297793
2024-10-14 17:00:00+00:00,-547.2459450548839
2024-10-14 18:00:00+00:00,-553.2905202553561
2024-10-14 19:00:00+00:00,-555.5472797788144
2024-10-15 13:00:00+00:00,-539.5301744420059
2024-10-15 14:00:00+00:00,-563.2458334854983
2024-10-15 15:00:00+00:00,-557.0778194283558
2024-10-15 16:00:00+00:00,-563.9132716379086
2024-10-15 17:00:00+00:00,-572.8731413355147
2024-10-15 18:00:00+00:00,-568.0719790215883
2024-10-15 19:00:00+00:00,-564.605346974507
2024-10-16 13:00:00+00:00,-567.9013575316682
2024-10-16 14:00:00+00:00,-551.7875954582736
2024-10-16 15:00:00+00:00,-561.2117070802921
2024-10-16 16:00:00+00:00,-562.8013341419363
2024-10-16 17:00:00+00:00,-578.0748112155595
2024-10-16 18:00:00+00:00,-577.1354390393783
2024-10-16 19:00:00+00:00,-572.5767704617035
2024-10-17 13:00:00+00:00,-548.085779663283
2024-10-17 14:00:00+00:00,-540.4290561151311
2024-10-17 15:00:00+00:00,-520.8946257413555
2024-10-17 16:00:00+00:00,-511.8077474259268
2024-10-17 17:00:00+00:00,-529.1900639925617
2024-10-17 18:00:00+00:00,-522.2942226886913
2024-10-17 19:00:00+00:00,-514.4600720847778
2024-10-18 13:00:00+00:00,-518.5804193191854
2024-10-18 14:00:00+00:00,-512.7373573850338
2024-10-18 15:00:00+00:00,-507.86604613383207
2024-10-18 16:00:00+00:00,-513.132347383773
2024-10-18 17:00:00+00:00,-511.2547269143033
2024-10-18 18:00:00+00:00,-524.4172911715305
2024-10-18 19:00:00+00:00,-518.6111879525449
2024-10-21 13:00:00+00:00,-531.9165996908278
2024-10-21 14:00:00+00:00,-526.6482532568838
2024-10-21 15:00:00+00:00,-508.61790716222947
2024-10-21 16:00:00+00:00,-507.28337689538427
2024-10-21 17:00:00+00:00,-502.60065397700595
2024-10-21 18:00:00+00:00,-500.2697116799959
2024-10-21 19:00:00+00:00,-511.25004932812965
2024-10-22 13:00:00+00:00,-497.696891130768
2024-10-22 14:00:00+00:00,-501.1133459201025
2024-10-22 15:00:00+00:00,-505.36416047195337
2024-10-22 16:00:00+00:00,-512.7321046622066
2024-10-22 17:00:00+00:00,-496.2989771451089
2024-10-22 18:00:00+00:00,-486.44825022676855
2024-10-22 19:00:00+00:00,-482.09249634951914
2024-10-23 13:00:00+00:00,-477.0986432532505
2024-10-23 14:00:00+00:00,-474.17276261570595
2024-10-23 15:00:00+00:00,-486.10387081073094
2024-10-23 16:00:00+00:00,-492.6409256311254
2024-10-23 17:00:00+00:00,-495.8791674146262
2024-10-23 18:00:00+00:00,-495.3621682591883
2024-10-23 19:00:00+00:00,-488.806514539028
2024-10-24 13:00:00+00:00,-494.5686709294511
2024-10-24 14:00:00+00:00,-486.344207912972
2024-10-24 15:00:00+00:00,-487.2016640981773
2024-10-24 16:00:00+00:00,-483.42234903019124
2024-10-24 17:00:00+00:00,-478.46517312151735
2024-10-24 18:00:00+00:00,-479.6644877705966
2024-10-24 19:00:00+00:00,-481.79284932363964
2024-10-25 13:00:00+00:00,-466.35584022762407
2024-10-25 14:00:00+00:00,-476.0435775193352
2024-10-25 15:00:00+00:00,-447.0396993423862
2024-10-25 16:00:00+00:00,-420.1075796710898
2024-10-25 17:00:00+00:00,-410.5405747482779
2024-10-25 18:00:00+00:00,-420.8957381108872
2024-10-25 19:00:00+00:00,-419.99139290151436
2024-10-28 13:00:00+00:00,-418.58833725455736
2024-10-28 14:00:00+00:00,-428.8180237978154
2024-10-28 15:00:00+00:00,-439.4006490280529
2024-10-28 16:00:00+00:00,-449.69886192470614
2024-10-28 17:00:00+00:00,-438.50918840480006
2024-10-28 18:00:00+00:00,-443.5581375251832
2024-10-28 19:00:00+00:00,-431.25241396912935
2024-10-29 13:00:00+00:00,-413.7806629838748
2024-10-29 14:00:00+00:00,-414.03525535616933
2024-10-29 15:00:00+00:00,-408.8299586845787
2024-10-29 16:00:00+00:00,-419.2247131645234
2024-10-29 17:00:00+00:00,-412.95376461860866
2024-10-29 18:00:00+00:00,-405.6131303620909
2024-10-29 19:00:00+00:00,-407.0054294025977
2024-10-30 13:00:00+00:00,-397.30124984512884
2024-10-30 14:00:00+00:00,-399.84234934148225
2024-10-30 15:00:00+00:00,-404.46272165531707
2024-10-30 16:00:00+00:00,-397.8552077157334
2024-10-30 17:00:00+00:00,-396.17786954452214
2024-10-30 18:00:00+00:00,-388.5073240512698
2024-10-30 19:00:00+00:00,-378.97531882673474
2024-10-31 13:00:00+00:00,-192.5012001112295
2024-10-31 14:00:00+00:00,-192.5012001112295
2024-10-31 15:00:00+00:00,-192.5012001112295
2024-10-31 16:00:00+00:00,-192.5012001112295
2024-10-31 17:00:00+00:00,-192.5012001112295
2024-10-31 18:00:00+00:00,-192.5012001112295
2024-10-31 19:00:00+00:00,-192.5012001112295
2024-11-01 13:00:00+00:00,-192.5012001112295
2024-11-01 14:00:00+00:00,-192.5012001112295
2024-11-01 15:00:00+00:00,-192.5012001112295
2024-11-01 16:00:00+00:00,-192.5012001112295
2024-11-01 17:00:00+00:00,-192.5012001112295
2024-11-01 18:00:00+00:00,-192.5012001112295
2024-11-01 19:00:00+00:00,-192.5012001112295
2024-11-04 14:00:00+00:00,-192.5012001112295
2024-11-04 15:00:00+00:00,-192.5012001112295
2024-11-04 16:00:00+00:00,-192.5012001112295
2024-11-04 17:00:00+00:00,-192.5012001112295
2024-11-04 18:00:00+00:00,-192.5012001112295
2024-11-04 19:00:00+00:00,-192.5012001112295
2024-11-04 20:00:00+00:00,-192.5012001112295
2024-11-05 14:00:00+00:00,-192.5012001112295
2024-11-05 15:00:00+00:00,-192.5012001112295
2024-11-05 16:00:00+00:00,-192.5012001112295
2024-11-05 17:00:00+00:00,-192.5012001112295
2024-11-05 18:00:00+00:00,-192.5012001112295
2024-11-05 19:00:00+00:00,-192.5012001112295
2024-11-05 20:00:00+00:00,-192.5012001112295
2024-11-06 14:00:00+00:00,-192.5012001112295
2024-11-06 15:00:00+00:00,-192.5012001112295
2024-11-06 16:00:00+00:00,-192.5012001112295
2024-11-06 17:00:00+00:00,-192.5012001112295
2024-11-06 18:00:00+00:00,-192.5012001112295
2024-11-06 19:00:00+00:00,-192.5012001112295
2024-11-06 20:00:00+00:00,-192.5012001112295
2024-11-07 14:00:00+00:00,-192.5012001112295
2024-11-07 15:00:00+00:00,-192.5012001112295
2024-11-07 16:00:00+00:00,-192.5012001112295
2024-11-07 17:00:00+00:00,-192.5012001112295
2024-11-07 18:00:00+00:00,-192.5012001112295
2024-11-07 19:00:00+00:00,-192.5012001112295
2024-11-07 20:00:00+00:00,-192.5012001112295
2024-11-08 14:00:00+00:00,-192.5012001112295
2024-11-08 15:00:00+00:00,-192.5012001112295
2024-11-08 16:00:00+00:00,-192.5012001112295
2024-11-08 17:00:00+00:00,-192.5012001112295
2024-11-08 18:00:00+00:00,-192.5012001112295
2024-11-08 19:00:00+00:00,-192.5012001112295
2024-11-08 20:00:00+00:00,-192.5012001112295
2024-11-11 14:00:00+00:00,-192.5012001112295
2024-11-11 15:00:00+00:00,-192.5012001112295
2024-11-11 16:00:00+00:00,-192.5012001112295
2024-11-11 17:00:00+00:00,-192.5012001112295
2024-11-11 18:00:00+00:00,-192.5012001112295
2024-11-11 19:00:00+00:00,-192.5012001112295
2024-11-11 20:00:00+00:00,-192.5012001112295
2024-11-12 14:00:00+00:00,-192.5012001112295
2024-11-12 15:00:00+00:00,-192.5012001112295
2024-11-12 16:00:00+00:00,-192.5012001112295
2024-11-12 17:00:00+00:00,-192.5012001112295
2024-11-12 18:00:00+00:00,-192.5012001112295
2024-11-12 19:00:00+00:00,-192.5012001112295
2024-11-12 20:00:00+00:00,-192.5012001112295
2024-11-13 14:00:00+00:00,-192.5012001112295
2024-11-13 15:00:00+00:00,-192.5012001112295
2024-11-13 16:00:00+00:00,-192.5012001112295
2024-11-13 17:00:00+00:00,-192.5012001112295
2024-11-13 18:00:00+00:00,-192.5012001112295
2024-11-13 19:00:00+00:00,-192.5012001112295
2024-11-13 20:00:00+00:00,-192.5012001112295
2024-11-14 14:00:00+00:00,-192.5012001112295
2024-11-14 15:00:00+00:00,-192.5012001112295
2024-11-14 16:00:00+00:00,-192.5012001112295
2024-11-14 17:00:00+00:00,-192.5012001112295
2024-11-14 18:00:00+00:00,-192.5012001112295
2024-11-14 19:00:00+00:00,-192.5012001112295
2024-11-14 20:00:00+00:00,-192.5012001112295
2024-11-15 14:00:00+00:00,-192.5012001112295
2024-11-15 15:00:00+00:00,-192.5012001112295
2024-11-15 16:00:00+00:00,-192.5012001112295
2024-11-15 17:00:00+00:00,-192.5012001112295
2024-11-15 18:00:00+00:00,-192.5012001112295
2024-11-15 19:00:00+00:00,-192.5012001112295
2024-11-15 20:00:00+00:00,-192.5012001112295
2024-11-18 14:00:00+00:00,-192.5012001112295
2024-11-18 15:00:00+00:00,-192.5012001112295
2024-11-18 16:00:00+00:00,-192.5012001112295
2024-11-18 17:00:00+00:00,-192.5012001112295
2024-11-18 18:00:00+00:00,-192.5012001112295
2024-11-18 19:00:00+00:00,-192.5012001112295
2024-11-18 20:00:00+00:00,-192.5012001112295
2024-11-19 14:00:00+00:00,-192.5012001112295
2024-11-19 15:00:00+00:00,-192.5012001112295
2024-11-19 16:00:00+00:00,-192.5012001112295
2024-11-19 17:00:00+00:00,-192.5012001112295
2024-11-19 18:00:00+00:00,-192.5012001112295
2024-11-19 19:00:00+00:00,-192.5012001112295
2024-11-19 20:00:00+00:00,-192.5012001112295
2024-11-20 14:00:00+00:00,-192.5012001112295
2024-11-20 15:00:00+00:00,-192.5012001112295
2024-11-20 16:00:00+00:00,-192.5012001112295
2024-11-20 17:00:00+00:00,-192.5012001112295
2024-11-20 18:00:00+00:00,-192.5012001112295
2024-11-20 19:00:00+00:00,-192.5012001112295
2024-11-20 20:00:00+00:00,-192.5012001112295
2024-11-21 14:00:00+00:00,-192.5012001112295
2024-11-21 15:00:00+00:00,-192.5012001112295
2024-11-21 16:00:00+00:00,-192.5012001112295
2024-11-21 17:00:00+00:00,-192.5012001112295
2024-11-21 18:00:00+00:00,-192.5012001112295
2024-11-21 19:00:00+00:00,-192.5012001112295
2024-11-21 20:00:00+00:00,-192.5012001112295
2024-11-22 14:00:00+00:00,-192.5012001112295
2024-11-22 15:00:00+00:00,-192.5012001112295
2024-11-22 16:00:00+00:00,-192.5012001112295
2024-11-22 17:00:00+00:00,-192.5012001112295
2024-11-22 18:00:00+00:00,-192.5012001112295
2024-11-22 19:00:00+00:00,-192.5012001112295
2024-11-22 20:00:00+00:00,-192.5012001112295
2024-11-25 14:00:00+00:00,-278.9112246817722
2024-11-25 15:00:00+00:00,-311.74866473891484
2024-11-25 16:00:00+00:00,-289.5894863036326
2024-11-25 17:00:00+00:00,-263.08357512310346
2024-11-25 18:00:00+00:00,-257.3064114237536
2024-11-25 19:00:00+00:00,-268.7279213461987
2024-11-25 20:00:00+00:00,-283.8592337480702
2024-11-26 14:00:00+00:00,-294.8012038981183
2024-11-26 15:00:00+00:00,-264.2510678843496
2024-11-26 16:00:00+00:00,-264.004238222587
2024-11-26 17:00:00+00:00,-259.9602771461659
2024-11-26 18:00:00+00:00,-265.9734854980363
2024-11-26 19:00:00+00:00,-265.2273296978132
2024-11-26 20:00:00+00:00,-270.50984451902895
2024-11-27 14:00:00+00:00,-247.46276261949868
2024-11-27 15:00:00+00:00,-239.6083309174814
2024-11-27 16:00:00+00:00,-258.5797879618559
2024-11-27 17:00:00+00:00,-248.5816264823494
2024-11-27 18:00:00+00:00,-248.1318610153713
2024-11-27 19:00:00+00:00,-232.1601759230527
2024-11-27 20:00:00+00:00,-262.1760104422348
2024-11-29 14:00:00+00:00,-255.44424543370425
2024-11-29 15:00:00+00:00,-225.72517577501614
2024-11-29 16:00:00+00:00,-228.08736054711702
2024-12-02 14:00:00+00:00,-229.50397500427835
2024-12-02 15:00:00+00:00,-240.07768956181533
2024-12-02 16:00:00+00:00,-229.75914680169822
2024-12-02 17:00:00+00:00,-240.4898778433698
2024-12-02 18:00:00+00:00,-250.8450805958034
2024-12-02 19:00:00+00:00,-256.6566533539077
2024-12-02 20:00:00+00:00,-251.859840462291
2024-12-03 14:00:00+00:00,-258.7656560904153
2024-12-03 15:00:00+00:00,-247.4819118672006
2024-12-03 16:00:00+00:00,-273.46790486108983
2024-12-03 17:00:00+00:00,-273.01817736491523
2024-12-03 18:00:00+00:00,-282.5397436807713
2024-12-03 19:00:00+00:00,-266.67008289487006
2024-12-03 20:00:00+00:00,-275.0476568589927
2024-12-04 14:00:00+00:00,-264.4585587162892
2024-12-04 15:00:00+00:00,-269.15353924150736
2024-12-04 16:00:00+00:00,-290.95046889261033
2024-12-04 17:00:00+00:00,-300.3866484432476
2024-12-04 18:00:00+00:00,-293.8214963487657
2024-12-04 19:00:00+00:00,-280.24777852195103
2024-12-04 20:00:00+00:00,-305.3569692886025
2024-12-05 14:00:00+00:00,-310.12347456173273
2024-12-05 15:00:00+00:00,-264.768071451653
2024-12-05 16:00:00+00:00,-252.34006751697098
2024-12-05 17:00:00+00:00,-254.89803277956224
2024-12-05 18:00:00+00:00,-253.64524609312346
2024-12-05 19:00:00+00:00,-263.52818090819284
2024-12-05 20:00:00+00:00,-281.5146509850997
2024-12-06 14:00:00+00:00,-240.41829427840997
2024-12-06 15:00:00+00:00,-251.31554977966232
2024-12-06 16:00:00+00:00,-250.11273828937465
2024-12-06 17:00:00+00:00,-234.69211771736275
2024-12-06 18:00:00+00:00,-243.2355096010318
2024-12-06 19:00:00+00:00,-257.9092678327821
2024-12-06 20:00:00+00:00,-253.1993044571944
2024-12-09 14:00:00+00:00,-220.1316159629685
2024-12-09 15:00:00+00:00,-238.76240947369996
2024-12-09 16:00:00+00:00,-242.6896517342132
2024-12-09 17:00:00+00:00,-283.1107427514837
2024-12-09 18:00:00+00:00,-274.6179041521198
2024-12-09 19:00:00+00:00,-284.57007650934594
2024-12-09 20:00:00+00:00,-256.4309643212369
2024-12-10 14:00:00+00:00,-285.44480074525006
2024-12-10 15:00:00+00:00,-263.6762776432142
2024-12-10 16:00:00+00:00,-257.55425256909615
2024-12-10 17:00:00+00:00,-260.9676108214119
2024-12-10 18:00:00+00:00,-260.7940064668191
2024-12-10 19:00:00+00:00,-239.41007958746846
2024-12-10 20:00:00+00:00,-244.67916127814595
2024-12-11 14:00:00+00:00,-263.8261395354858
2024-12-11 15:00:00+00:00,-255.4482537330848
2024-12-11 16:00:00+00:00,-270.78148920790306
2024-12-11 17:00:00+00:00,-262.28093959320347
2024-12-11 18:00:00+00:00,-284.41781468860694
2024-12-11 19:00:00+00:00,-279.4318798725626
2024-12-11 20:00:00+00:00,-290.142441529824
2024-12-12 14:00:00+00:00,-277.99197887487736
2024-12-12 15:00:00+00:00,-291.8106891644444
2024-12-12 16:00:00+00:00,-304.34641940129717
2024-12-12 17:00:00+00:00,-313.2667719120301
2024-12-12 18:00:00+00:00,-306.7528796418889
2024-12-12 19:00:00+00:00,-315.2749564208064
2024-12-12 20:00:00+00:00,-309.14449453356224
2024-12-13 14:00:00+00:00,-285.2321048011198
2024-12-13 15:00:00+00:00,-260.4448338529338
2024-12-13 16:00:00+00:00,-263.49825365296266
2024-12-13 17:00:00+00:00,-283.60715873521855
2024-12-13 18:00:00+00:00,-299.32508597188615
2024-12-13 19:00:00+00:00,-305.88391563396607
2024-12-13 20:00:00+00:00,-312.6373349277142
2024-12-16 14:00:00+00:00,-313.6093690455398
2024-12-16 15:00:00+00:00,-293.4360191103827
2024-12-16 16:00:00+00:00,-299.87101925841966
2024-12-16 17:00:00+00:00,-294.3581109447798
2024-12-16 18:00:00+00:00,-293.2348226969218
2024-12-16 19:00:00+00:00,-276.321835224199
2024-12-16 20:00:00+00:00,-295.6405009777626
2024-12-17 14:00:00+00:00,-291.53246810204126
2024-12-17 15:00:00+00:00,-299.3331773504787
2024-12-17 16:00:00+00:00,-290.6591959049544
2024-12-17 17:00:00+00:00,-285.52833851006034
2024-12-17 18:00:00+00:00,-288.3975604359579
2024-12-17 19:00:00+00:00,-299.2814381069367
2024-12-17 20:00:00+00:00,-300.75930243817714
2024-12-18 14:00:00+00:00,-290.90040318706315
2024-12-18 15:00:00+00:00,-268.2382738899684
2024-12-18 16:00:00+00:00,-262.6148080559273
2024-12-18 17:00:00+00:00,-265.23811891956836
2024-12-18 18:00:00+00:00,-266.9673939061522
2024-12-18 19:00:00+00:00,-247.98616847245964
2024-12-18 20:00:00+00:00,-275.34421297583856
2024-12-19 14:00:00+00:00,-258.30034689718303
2024-12-19 15:00:00+00:00,-239.77909676818453
2024-12-19 16:00:00+00:00,-250.2154277831417
2024-12-19 17:00:00+00:00,-248.79483287062706
2024-12-19 18:00:00+00:00,-245.6936677324773
2024-12-19 19:00:00+00:00,-245.01340848456482
2024-12-19 20:00:00+00:00,-254.12879859450743
2024-12-20 14:00:00+00:00,-283.0848308803303
2024-12-20 15:00:00+00:00,-271.70671806576803
2024-12-20 16:00:00+00:00,-273.47486446691914
2024-12-20 17:00:00+00:00,-256.2716502245509
2024-12-20 18:00:00+00:00,-259.5184840172859
2024-12-20 19:00:00+00:00,-259.99691411185165
2024-12-20 20:00:00+00:00,-286.592023004526
2024-12-23 14:00:00+00:00,-281.20097980193987
2024-12-23 15:00:00+00:00,-281.01195427836836
2024-12-23 16:00:00+00:00,-270.1563550868463
2024-12-23 17:00:00+00:00,-276.9967511006052
2024-12-23 18:00:00+00:00,-264.0618265324328
2024-12-23 19:00:00+00:00,-265.37360558439485
2024-12-23 20:00:00+00:00,-259.3002203141615
2024-12-24 14:00:00+00:00,-250.02393394023824
2024-12-24 15:00:00+00:00,-263.74900229794196
2024-12-24 16:00:00+00:00,-263.8494768845303
2024-12-26 14:00:00+00:00,-274.21229511313834
2024-12-26 15:00:00+00:00,-267.31346384086373
2024-12-26 16:00:00+00:00,-269.90787930439774
2024-12-26 17:00:00+00:00,-271.86461291050915
2024-12-26 18:00:00+00:00,-285.18340704188097
2024-12-26 19:00:00+00:00,-275.06741847503656
2024-12-26 20:00:00+00:00,-258.6177827073522
2024-12-27 14:00:00+00:00,-249.37752606711737
2024-12-27 15:00:00+00:00,-261.1169109800322
2024-12-27 16:00:00+00:00,-260.5236956694265
2024-12-27 17:00:00+00:00,-273.8535426200882
2024-12-27 18:00:00+00:00,-261.6052548193331
2024-12-27 19:00:00+00:00,-265.2846707673743
2024-12-27 20:00:00+00:00,-258.17547874733197
2024-12-30 14:00:00+00:00,-268.31450309763187
2024-12-30 15:00:00+00:00,-265.61791162655766
2024-12-30 16:00:00+00:00,-256.1239926698341
2024-12-30 17:00:00+00:00,-237.4794232491163
2024-12-30 18:00:00+00:00,-245.5983842833698
2024-12-30 19:00:00+00:00,-235.408615866588
2024-12-30 20:00:00+00:00,-254.45802141452862
2024-12-31 14:00:00+00:00,-259.6436029242059
2024-12-31 15:00:00+00:00,-258.26713177905816
2024-12-31 16:00:00+00:00,-237.75239165077315
2024-12-31 17:00:00+00:00,-224.16562457346052
2024-12-31 18:00:00+00:00,-252.19345902964278
2024-12-31 19:00:00+00:00,-246.4688321884258
2024-12-31 20:00:00+00:00,-237.87425676182576
2025-01-02 14:00:00+00:00,-276.5225522184602
2025-01-02 15:00:00+00:00,-264.0159637603034
2025-01-02 16:00:00+00:00,-264.0812316735465
2025-01-02 17:00:00+00:00,-268.9471597278057
2025-01-02 18:00:00+00:00,-270.43737993837425
2025-01-02 19:00:00+00:00,-280.2338482557551
2025-01-02 20:00:00+00:00,-276.56721156699075
2025-01-03 14:00:00+00:00,-293.49271270904984
2025-01-03 15:00:00+00:00,-303.4715105350293
2025-01-03 16:00:00+00:00,-282.9277241672104
2025-01-03 17:00:00+00:00,-296.26746964274287
2025-01-03 18:00:00+00:00,-302.59350222910365
2025-01-03 19:00:00+00:00,-304.311116327094
2025-01-03 20:00:00+00:00,-301.651967669784
2025-01-06 14:00:00+00:00,-336.3595885970607
2025-01-06 15:00:00+00:00,-330.0416500443803
2025-01-06 16:00:00+00:00,-319.0280596072597
2025-01-06 17:00:00+00:00,-339.18262295685
2025-01-06 18:00:00+00:00,-354.9382047706036
2025-01-06 19:00:00+00:00,-348.8128292747999
2025-01-06 20:00:00+00:00,-345.79832257435646
2025-01-07 14:00:00+00:00,-310.05859681091687
2025-01-07 15:00:00+00:00,-324.67946114130865
2025-01-07 16:00:00+00:00,-322.1998308938147
2025-01-07 17:00:00+00:00,-316.2428769603068
2025-01-07 18:00:00+00:00,-327.12763768618265
2025-01-07 19:00:00+00:00,-319.40421815512394
2025-01-07 20:00:00+00:00,-314.1720847976407
2025-01-08 14:00:00+00:00,-329.5049363924206
2025-01-08 15:00:00+00:00,-339.91115172891085
2025-01-08 16:00:00+00:00,-343.93333840083
2025-01-08 17:00:00+00:00,-344.5202968767666
2025-01-08 18:00:00+00:00,-349.82951419067285
2025-01-08 19:00:00+00:00,-348.91127472235746
2025-01-08 20:00:00+00:00,-348.823602145983
2025-01-10 14:00:00+00:00,-470.98748362365626
2025-01-10 15:00:00+00:00,-428.6773549939527
2025-01-10 16:00:00+00:00,-412.09605866058473
2025-01-10 17:00:00+00:00,-426.69050570937486
2025-01-10 18:00:00+00:00,-450.0233596403378
2025-01-10 19:00:00+00:00,-454.41670940440525
2025-01-10 20:00:00+00:00,-448.90841266644424
2025-01-13 14:00:00+00:00,-418.89568024200594
2025-01-13 15:00:00+00:00,-476.0980981663164
2025-01-13 16:00:00+00:00,-494.61420200017153
2025-01-13 17:00:00+00:00,-511.9024294212533
2025-01-13 18:00:00+00:00,-490.48164974787056
2025-01-13 19:00:00+00:00,-471.7298133247348
2025-01-13 20:00:00+00:00,-459.90357803409273
2025-01-14 14:00:00+00:00,-465.0486699355257
2025-01-14 15:00:00+00:00,-478.80224895160336
2025-01-14 16:00:00+00:00,-489.6571214836406
2025-01-14 17:00:00+00:00,-489.2066270890829
2025-01-14 18:00:00+00:00,-500.46767830828963
2025-01-14 19:00:00+00:00,-486.17796059861655
2025-01-14 20:00:00+00:00,-479.30735250553226
2025-01-15 14:00:00+00:00,-444.41676932977276
2025-01-15 15:00:00+00:00,-451.82870513174976
2025-01-15 16:00:00+00:00,-472.4089604135618
2025-01-15 17:00:00+00:00,-474.09000919670126
2025-01-15 18:00:00+00:00,-480.1469582975963
2025-01-15 19:00:00+00:00,-476.36379473294306
2025-01-15 20:00:00+00:00,-499.3779514747856
2025-01-16 14:00:00+00:00,-494.03791999456087
2025-01-16 15:00:00+00:00,-493.95732731319845
2025-01-16 16:00:00+00:00,-491.160069315517
2025-01-16 17:00:00+00:00,-482.7104358840164
2025-01-16 18:00:00+00:00,-491.5582897470662
2025-01-16 19:00:00+00:00,-499.90269284625583
2025-01-16 20:00:00+00:00,-531.5221903548066
2025-01-17 14:00:00+00:00,-486.1551110650859
2025-01-17 15:00:00+00:00,-491.81330984336444
2025-01-17 16:00:00+00:00,-475.98894129611415
2025-01-17 17:00:00+00:00,-484.26317078141557
2025-01-17 18:00:00+00:00,-478.2417719950082
2025-01-17 19:00:00+00:00,-467.64963431634897
2025-01-17 20:00:00+00:00,-465.1969612656552
2025-01-21 14:00:00+00:00,-455.4526713721192
2025-01-21 15:00:00+00:00,-471.618185503706
2025-01-21 16:00:00+00:00,-453.70503713482486
2025-01-21 17:00:00+00:00,-479.66925572421155
2025-01-21 18:00:00+00:00,-467.40978440699905
2025-01-21 19:00:00+00:00,-483.8459280693868
2025-01-21 20:00:00+00:00,-516.9747745730244
2025-01-22 14:00:00+00:00,-520.8087185428184
2025-01-22 15:00:00+00:00,-496.8077778733939
2025-01-22 16:00:00+00:00,-491.4158160713018
2025-01-22 17:00:00+00:00,-493.8591693448222
2025-01-22 18:00:00+00:00,-493.51249621679545
2025-01-22 19:00:00+00:00,-491.3135557065733
2025-01-22 20:00:00+00:00,-494.31092598002766
2025-01-23 14:00:00+00:00,-443.8578445742625
2025-01-23 15:00:00+00:00,-442.5368754342975
2025-01-23 16:00:00+00:00,-445.04087056018057
2025-01-23 17:00:00+00:00,-445.6859206534924
2025-01-23 18:00:00+00:00,-436.90358108227304
2025-01-23 19:00:00+00:00,-438.58497436825036
2025-01-23 20:00:00+00:00,-450.1939600944369
2025-01-24 14:00:00+00:00,-426.3113441227086
2025-01-24 15:00:00+00:00,-439.1532570176483
2025-01-24 16:00:00+00:00,-456.8059515159059
2025-01-24 17:00:00+00:00,-447.54537465183455
2025-01-24 18:00:00+00:00,-447.4869393933207
2025-01-24 19:00:00+00:00,-454.089018839853
2025-01-24 20:00:00+00:00,-465.4734094702276
2025-01-27 14:00:00+00:00,-479.15163763924926
2025-01-27 15:00:00+00:00,-458.29803093743493
2025-01-27 16:00:00+00:00,-442.501348218417
2025-01-27 17:00:00+00:00,-436.8353477140397
2025-01-27 18:00:00+00:00,-443.25836489790936
2025-01-27 19:00:00+00:00,-433.78326156007944
2025-01-27 20:00:00+00:00,-433.02279513040406
2025-01-28 14:00:00+00:00,-414.83648641984536
2025-01-28 15:00:00+00:00,-425.58428388948346
2025-01-28 16:00:00+00:00,-428.78752863431504
2025-01-28 17:00:00+00:00,-433.03370112456065
2025-01-28 18:00:00+00:00,-427.1926050548636
2025-01-28 19:00:00+00:00,-429.77125422282967
2025-01-28 20:00:00+00:00,-428.11236286253626
2025-01-29 14:00:00+00:00,-439.25956445486923
2025-01-29 15:00:00+00:00,-427.7137987898459
2025-01-29 16:00:00+00:00,-420.2429507914086
2025-01-29 17:00:00+00:00,-415.7646842494841
2025-01-29 18:00:00+00:00,-411.91003617581464
2025-01-29 19:00:00+00:00,-406.8006865288901
2025-01-29 20:00:00+00:00,-419.3441830813429
2025-01-30 14:00:00+00:00,-442.2203813222415
2025-01-30 15:00:00+00:00,-446.1481994028144
2025-01-30 16:00:00+00:00,-418.59894588062457
2025-01-30 17:00:00+00:00,-408.5036614176545
2025-01-30 18:00:00+00:00,-401.92589763341687
2025-01-30 19:00:00+00:00,-399.18537595455393
2025-01-30 20:00:00+00:00,-406.43185511632066
2025-01-31 14:00:00+00:00,-354.11711850051773
2025-01-31 15:00:00+00:00,-360.0963214293283
2025-01-31 16:00:00+00:00,-370.77003512095825
2025-01-31 17:00:00+00:00,-367.5085068187345
2025-01-31 18:00:00+00:00,-361.9695038496693
2025-01-31 19:00:00+00:00,-367.75615954083895
2025-01-31 20:00:00+00:00,-373.640614826666
2025-02-03 14:00:00+00:00,-419.0901191683595
2025-02-03 15:00:00+00:00,-417.5099832904164
2025-02-03 16:00:00+00:00,-422.56870423332515
2025-02-03 17:00:00+00:00,-417.85791865909033
2025-02-03 18:00:00+00:00,-402.1476060369024
2025-02-03 19:00:00+00:00,-410.5531559399314
2025-02-03 20:00:00+00:00,-411.98863730195626
2025-02-04 14:00:00+00:00,-425.4193091497307
2025-02-04 15:00:00+00:00,-429.9277324707141
2025-02-04 16:00:00+00:00,-417.39127557437615
2025-02-04 17:00:00+00:00,-413.39775126195275
2025-02-04 18:00:00+00:00,-400.8831090090132
2025-02-04 19:00:00+00:00,-384.14445255037083
2025-02-04 20:00:00+00:00,-383.7965171816969
2025-02-05 14:00:00+00:00,-384.3481725834329
2025-02-05 15:00:00+00:00,-406.4342278964934
2025-02-05 16:00:00+00:00,-397.11594243339346
2025-02-05 17:00:00+00:00,-378.862568849478
2025-02-05 18:00:00+00:00,-386.76801065429595
2025-02-05 19:00:00+00:00,-378.0864893108068
2025-02-05 20:00:00+00:00,-384.89129477118263
2025-02-06 14:00:00+00:00,-298.03624716421746
2025-02-06 15:00:00+00:00,-346.8426633998435
2025-02-06 16:00:00+00:00,-369.88640110068786
2025-02-06 17:00:00+00:00,-348.40772088825776
2025-02-06 18:00:00+00:00,-347.51748639217533
2025-02-06 19:00:00+00:00,-355.4872364101379
2025-02-06 20:00:00+00:00,-360.03013974498106
2025-02-07 14:00:00+00:00,-375.92792817091106
2025-02-07 15:00:00+00:00,-414.5668093978668
2025-02-07 16:00:00+00:00,-412.83459632954657
2025-02-07 17:00:00+00:00,-406.30518648957116
2025-02-07 18:00:00+00:00,-397.5515503784413
2025-02-07 19:00:00+00:00,-397.71996733729804
2025-02-07 20:00:00+00:00,-421.6697445832401
2025-02-10 14:00:00+00:00,-483.0373575747
2025-02-10 15:00:00+00:00,-492.5509262577341
2025-02-10 16:00:00+00:00,-514.4352898150696
2025-02-10 17:00:00+00:00,-512.085542770701
2025-02-10 18:00:00+00:00,-518.2167678818363
2025-02-10 19:00:00+00:00,-532.6731055902536
2025-02-10 20:00:00+00:00,-525.7959523216251
2025-02-11 14:00:00+00:00,-557.997707860655
2025-02-11 15:00:00+00:00,-532.3142642274245
2025-02-11 16:00:00+00:00,-511.17483446856204
2025-02-11 17:00:00+00:00,-487.06845805314293
2025-02-11 18:00:00+00:00,-500.3713173000273
2025-02-11 19:00:00+00:00,-480.8063574658647
2025-02-11 20:00:00+00:00,-489.25583919624296
2025-02-12 14:00:00+00:00,-540.0345071407207
2025-02-12 15:00:00+00:00,-557.242140485841
2025-02-12 16:00:00+00:00,-550.1010534606903
2025-02-12 17:00:00+00:00,-538.3541836224662
2025-02-12 18:00:00+00:00,-506.57276656062913
2025-02-12 19:00:00+00:00,-503.9506617756752
2025-02-12 20:00:00+00:00,-507.21873525344574
2025-02-13 14:00:00+00:00,-542.8303605887513
2025-02-13 15:00:00+00:00,-548.5397045203075
2025-02-13 16:00:00+00:00,-557.5288443414919
2025-02-13 17:00:00+00:00,-557.2875479961075
2025-02-13 18:00:00+00:00,-567.1410687731615
2025-02-13 19:00:00+00:00,-575.0257100732468
2025-02-13 20:00:00+00:00,-581.4669117556865
2025-02-14 14:00:00+00:00,-626.9438162162279
2025-02-14 15:00:00+00:00,-612.7840585129807
2025-02-14 16:00:00+00:00,-619.131769964681
2025-02-14 17:00:00+00:00,-615.5675003617798
2025-02-14 18:00:00+00:00,-620.0744703637913
2025-02-14 19:00:00+00:00,-616.3073029264768
2025-02-14 20:00:00+00:00,-621.5255648348119
2025-02-18 14:00:00+00:00,-665.3009074866636
2025-02-18 15:00:00+00:00,-665.4314022125566
2025-02-18 16:00:00+00:00,-667.1685143357339
2025-02-18 17:00:00+00:00,-689.1227219714941
2025-02-18 18:00:00+00:00,-663.1459840226748
2025-02-18 19:00:00+00:00,-661.8413812665814
2025-02-18 20:00:00+00:00,-630.3055316258591
2025-02-19 14:00:00+00:00,-651.7919808089778
2025-02-19 15:00:00+00:00,-664.0699718731299
2025-02-19 16:00:00+00:00,-682.7504754883744
2025-02-19 17:00:00+00:00,-672.2364986688955
2025-02-19 18:00:00+00:00,-678.3589629233182
2025-02-19 19:00:00+00:00,-672.5922823596763
2025-02-19 20:00:00+00:00,-669.286052941313
2025-02-20 14:00:00+00:00,-661.0962984220729
2025-02-20 15:00:00+00:00,-638.3424044725305
2025-02-20 16:00:00+00:00,-621.8050399665105
2025-02-20 17:00:00+00:00,-630.7323768330933
2025-02-20 18:00:00+00:00,-618.1204107191945
2025-02-20 19:00:00+00:00,-609.2678564106867
2025-02-20 20:00:00+00:00,-604.1082217008861
2025-02-21 14:00:00+00:00,-622.8494969485134
2025-02-21 15:00:00+00:00,-642.4586169563484
2025-02-21 16:00:00+00:00,-665.1514346107753
2025-02-21 17:00:00+00:00,-649.9468173764856
2025-02-21 18:00:00+00:00,-653.9400163179745
2025-02-21 19:00:00+00:00,-659.6653698186781
2025-02-21 20:00:00+00:00,-688.8539211368101
2025-02-24 14:00:00+00:00,-648.795802777149
2025-02-24 15:00:00+00:00,-651.794696368596
2025-02-24 16:00:00+00:00,-650.0913375997927
2025-02-24 17:00:00+00:00,-659.4323160669012
2025-02-24 18:00:00+00:00,-661.8669441864176
2025-02-24 19:00:00+00:00,-664.2510953030405
2025-02-24 20:00:00+00:00,-668.6932768110103
2025-02-25 14:00:00+00:00,-646.2397889657818
2025-02-25 15:00:00+00:00,-650.652541215874
2025-02-25 16:00:00+00:00,-663.3561536921187
2025-02-25 17:00:00+00:00,-665.6532071907308
2025-02-25 18:00:00+00:00,-648.4068833196621
2025-02-25 19:00:00+00:00,-667.5582015532996
2025-02-25 20:00:00+00:00,-661.2480695551164
2025-02-26 14:00:00+00:00,-649.8067741283025
2025-02-26 15:00:00+00:00,-644.8939690802627
2025-02-26 16:00:00+00:00,-665.9388785466577
2025-02-26 17:00:00+00:00,-646.2521482789102
2025-02-26 18:00:00+00:00,-639.7153157644758
2025-02-26 19:00:00+00:00,-639.2000337375711
2025-02-26 20:00:00+00:00,-647.2643442869005
2025-02-27 14:00:00+00:00,-599.1301310231478
2025-02-27 15:00:00+00:00,-597.27484676509
2025-02-27 16:00:00+00:00,-613.1813603450239
2025-02-27 17:00:00+00:00,-612.5649726112078
2025-02-27 18:00:00+00:00,-631.3478433123154
2025-02-27 19:00:00+00:00,-613.1029476421205
2025-02-27 20:00:00+00:00,-624.4797990777291
2025-02-28 14:00:00+00:00,-401.1494742797703
2025-02-28 15:00:00+00:00,-382.6570775885915
2025-02-28 16:00:00+00:00,-386.44630690959036
2025-02-28 17:00:00+00:00,-403.11944821470684
2025-02-28 18:00:00+00:00,-380.85135173392507
2025-02-28 19:00:00+00:00,-367.068479238028
2025-02-28 20:00:00+00:00,-402.90045785209816
2025-03-03 14:00:00+00:00,-311.37675688304347
2025-03-03 15:00:00+00:00,-343.29574856578563
2025-03-03 16:00:00+00:00,-390.4318327274976
2025-03-03 17:00:00+00:00,-408.3007029728005
2025-03-03 18:00:00+00:00,-442.5922507023329
2025-03-03 19:00:00+00:00,-457.21782842995117
2025-03-03 20:00:00+00:00,-454.91315945516607
2025-03-04 14:00:00+00:00,-553.8090683799902
2025-03-04 15:00:00+00:00,-549.3658165713927
2025-03-04 16:00:00+00:00,-605.1970060465577
2025-03-04 17:00:00+00:00,-622.1322473429839
2025-03-04 18:00:00+00:00,-631.4211437871033
2025-03-04 19:00:00+00:00,-606.9844032326116
2025-03-04 20:00:00+00:00,-603.1752928680811
2025-03-05 14:00:00+00:00,-653.2448483517862
2025-03-05 15:00:00+00:00,-651.6451189094932
2025-03-05 16:00:00+00:00,-663.4113692217923
2025-03-05 17:00:00+00:00,-675.397336556185
2025-03-05 18:00:00+00:00,-664.148799868012
2025-03-05 19:00:00+00:00,-663.3119574920629
2025-03-05 20:00:00+00:00,-673.88038415219
2025-03-06 14:00:00+00:00,-681.5694547531599
2025-03-06 15:00:00+00:00,-651.8144579846396
2025-03-06 16:00:00+00:00,-668.6414181399795
2025-03-06 17:00:00+00:00,-677.9429430153507
2025-03-06 18:00:00+00:00,-685.6124972300752
2025-03-06 19:00:00+00:00,-685.3151352651527
2025-03-06 20:00:00+00:00,-697.844567566745
2025-03-07 14:00:00+00:00,-703.2209617691938
2025-03-07 15:00:00+00:00,-694.2183249470608
2025-03-07 16:00:00+00:00,-706.0726870160366
2025-03-07 17:00:00+00:00,-710.2750232180947
2025-03-07 18:00:00+00:00,-726.6878061917471
2025-03-07 19:00:00+00:00,-718.8249392961649
2025-03-07 20:00:00+00:00,-722.6947612985253
2025-03-10 13:00:00+00:00,-711.4034577610973
2025-03-10 14:00:00+00:00,-695.2973001426196
2025-03-10 15:00:00+00:00,-671.2993633736901
2025-03-10 16:00:00+00:00,-653.7193594631352
2025-03-10 17:00:00+00:00,-649.9970030754729
2025-03-10 18:00:00+00:00,-666.0698491749692
2025-03-10 19:00:00+00:00,-644.3001602331422
2025-03-11 13:00:00+00:00,-582.632771395997
2025-03-11 14:00:00+00:00,-578.0282144094004
2025-03-11 15:00:00+00:00,-554.5884052313114
2025-03-11 16:00:00+00:00,-542.907359176053
2025-03-11 17:00:00+00:00,-529.0953449014602
2025-03-11 18:00:00+00:00,-490.7249169013444
2025-03-11 19:00:00+00:00,-470.0733288116392
2025-03-12 13:00:00+00:00,-437.7922419701991
2025-03-12 14:00:00+00:00,-442.58760154284516
2025-03-12 15:00:00+00:00,-437.57887818362997
2025-03-12 16:00:00+00:00,-434.09219822328913
2025-03-12 17:00:00+00:00,-422.628058091345
2025-03-12 18:00:00+00:00,-407.96208629464456
2025-03-12 19:00:00+00:00,-365.0487549596837
2025-03-13 13:00:00+00:00,-270.74394733819497
2025-03-13 14:00:00+00:00,-270.74394733819497
2025-03-13 15:00:00+00:00,-270.74394733819497
2025-03-13 16:00:00+00:00,-270.74394733819497
2025-03-13 17:00:00+00:00,-270.74394733819497
2025-03-13 18:00:00+00:00,-270.74394733819497
2025-03-13 19:00:00+00:00,-270.74394733819497
2025-03-14 13:00:00+00:00,-270.74394733819497
2025-03-14 14:00:00+00:00,-270.74394733819497
2025-03-14 15:00:00+00:00,-270.74394733819497
2025-03-14 16:00:00+00:00,-270.74394733819497
2025-03-14 17:00:00+00:00,-270.74394733819497
2025-03-14 18:00:00+00:00,-270.74394733819497
2025-03-14 19:00:00+00:00,-270.74394733819497
2025-03-17 13:00:00+00:00,-270.74394733819497
2025-03-17 14:00:00+00:00,-270.74394733819497
2025-03-17 15:00:00+00:00,-270.74394733819497
2025-03-17 16:00:00+00:00,-270.74394733819497
2025-03-17 17:00:00+00:00,-270.74394733819497
2025-03-17 18:00:00+00:00,-270.74394733819497
2025-03-17 19:00:00+00:00,-270.74394733819497
2025-03-18 13:00:00+00:00,-270.74394733819497
2025-03-18 14:00:00+00:00,-270.74394733819497
2025-03-18 15:00:00+00:00,-270.74394733819497
2025-03-18 16:00:00+00:00,-270.74394733819497
2025-03-18 17:00:00+00:00,-270.74394733819497
2025-03-18 18:00:00+00:00,-270.74394733819497
2025-03-18 19:00:00+00:00,-270.74394733819497
2025-03-19 13:00:00+00:00,-270.74394733819497
2025-03-19 14:00:00+00:00,-270.74394733819497
2025-03-19 15:00:00+00:00,-270.74394733819497
2025-03-19 16:00:00+00:00,-270.74394733819497
2025-03-19 17:00:00+00:00,-270.74394733819497
2025-03-19 18:00:00+00:00,-270.74394733819497
2025-03-19 19:00:00+00:00,-270.74394733819497
2025-03-20 13:00:00+00:00,-270.74394733819497
2025-03-20 14:00:00+00:00,-270.74394733819497
2025-03-20 15:00:00+00:00,-270.74394733819497
2025-03-20 16:00:00+00:00,-270.74394733819497
2025-03-20 17:00:00+00:00,-270.74394733819497
2025-03-20 18:00:00+00:00,-270.74394733819497
2025-03-20 19:00:00+00:00,-270.74394733819497
2025-03-21 13:00:00+00:00,-270.74394733819497
2025-03-21 14:00:00+00:00,-270.74394733819497
2025-03-21 15:00:00+00:00,-270.74394733819497
2025-03-21 16:00:00+00:00,-270.74394733819497
2025-03-21 17:00:00+00:00,-270.74394733819497
2025-03-21 18:00:00+00:00,-270.74394733819497
2025-03-21 19:00:00+00:00,-270.74394733819497
2025-03-24 13:00:00+00:00,-270.74394733819497
2025-03-24 14:00:00+00:00,-270.74394733819497
2025-03-24 15:00:00+00:00,-270.74394733819497
2025-03-24 16:00:00+00:00,-270.74394733819497
2025-03-24 17:00:00+00:00,-270.74394733819497
2025-03-24 18:00:00+00:00,-270.74394733819497
2025-03-24 19:00:00+00:00,-270.74394733819497
2025-03-25 13:00:00+00:00,-270.74394733819497
2025-03-25 14:00:00+00:00,-270.74394733819497
2025-03-25 15:00:00+00:00,-270.74394733819497
2025-03-25 16:00:00+00:00,-270.74394733819497
2025-03-25 17:00:00+00:00,-270.74394733819497
2025-03-25 18:00:00+00:00,-270.74394733819497
2025-03-25 19:00:00+00:00,-270.74394733819497
2025-03-26 13:00:00+00:00,-270.74394733819497
2025-03-26 14:00:00+00:00,-270.74394733819497
2025-03-26 15:00:00+00:00,-270.74394733819497
2025-03-26 16:00:00+00:00,-270.74394733819497
2025-03-26 17:00:00+00:00,-270.74394733819497
2025-03-26 18:00:00+00:00,-270.74394733819497
2025-03-26 19:00:00+00:00,-270.74394733819497
2025-03-27 13:00:00+00:00,-270.74394733819497
2025-03-27 14:00:00+00:00,-270.74394733819497
2025-03-27 15:00:00+00:00,-270.74394733819497
2025-03-27 16:00:00+00:00,-270.74394733819497
2025-03-27 17:00:00+00:00,-270.74394733819497
2025-03-27 18:00:00+00:00,-270.74394733819497
2025-03-27 19:00:00+00:00,-270.74394733819497
2025-03-28 13:00:00+00:00,-270.74394733819497
2025-03-28 14:00:00+00:00,-270.74394733819497
2025-03-28 15:00:00+00:00,-270.74394733819497
2025-03-28 16:00:00+00:00,-270.74394733819497
2025-03-28 17:00:00+00:00,-270.74394733819497
2025-03-28 18:00:00+00:00,-270.74394733819497
2025-03-28 19:00:00+00:00,-270.74394733819497
2025-03-31 13:00:00+00:00,-270.74394733819497
2025-03-31 14:00:00+00:00,-270.74394733819497
2025-03-31 15:00:00+00:00,-270.74394733819497
2025-03-31 16:00:00+00:00,-270.74394733819497
2025-03-31 17:00:00+00:00,-270.74394733819497
2025-03-31 18:00:00+00:00,-270.74394733819497
2025-03-31 19:00:00+00:00,-270.74394733819497
2025-04-01 13:00:00+00:00,-270.74394733819497
2025-04-01 14:00:00+00:00,-270.74394733819497
2025-04-01 15:00:00+00:00,-270.74394733819497
2025-04-01 16:00:00+00:00,-270.74394733819497
2025-04-01 17:00:00+00:00,-270.74394733819497
2025-04-01 18:00:00+00:00,-270.74394733819497
2025-04-01 19:00:00+00:00,-270.74394733819497
2025-04-02 13:00:00+00:00,-270.74394733819497
2025-04-02 14:00:00+00:00,-270.74394733819497
2025-04-02 15:00:00+00:00,-270.74394733819497
2025-04-02 16:00:00+00:00,-270.74394733819497
2025-04-02 17:00:00+00:00,-270.74394733819497
2025-04-02 18:00:00+00:00,-270.74394733819497
2025-04-02 19:00:00+00:00,-270.74394733819497
2025-04-03 13:00:00+00:00,-270.74394733819497
2025-04-03 14:00:00+00:00,-270.74394733819497
2025-04-03 15:00:00+00:00,-270.74394733819497
2025-04-03 16:00:00+00:00,-270.74394733819497
2025-04-03 17:00:00+00:00,-270.74394733819497
2025-04-03 18:00:00+00:00,-270.74394733819497
2025-04-03 19:00:00+00:00,-270.74394733819497
2025-04-04 13:00:00+00:00,-270.74394733819497
2025-04-04 14:00:00+00:00,-270.74394733819497
2025-04-04 15:00:00+00:00,-270.74394733819497
2025-04-04 16:00:00+00:00,-270.74394733819497
2025-04-04 17:00:00+00:00,-270.74394733819497
2025-04-04 18:00:00+00:00,-270.74394733819497
2025-04-04 19:00:00+00:00,-270.74394733819497
2025-04-07 13:00:00+00:00,-270.74394733819497
2025-04-07 14:00:00+00:00,-270.74394733819497
2025-04-07 15:00:00+00:00,-270.74394733819497
2025-04-07 16:00:00+00:00,-270.74394733819497
2025-04-07 17:00:00+00:00,-270.74394733819497
2025-04-07 18:00:00+00:00,-270.74394733819497
2025-04-07 19:00:00+00:00,-270.74394733819497
2025-04-08 13:00:00+00:00,-270.74394733819497
2025-04-08 14:00:00+00:00,-270.74394733819497
2025-04-08 15:00:00+00:00,-270.74394733819497
2025-04-08 16:00:00+00:00,-270.74394733819497
2025-04-08 17:00:00+00:00,-270.74394733819497
2025-04-08 18:00:00+00:00,-270.74394733819497
2025-04-08 19:00:00+00:00,-270.74394733819497
2025-04-09 13:00:00+00:00,-270.74394733819497
2025-04-09 14:00:00+00:00,-270.74394733819497
2025-04-09 15:00:00+00:00,-270.74394733819497
2025-04-09 16:00:00+00:00,-270.74394733819497
2025-04-09 17:00:00+00:00,-270.74394733819497
2025-04-09 18:00:00+00:00,-270.74394733819497
2025-04-09 19:00:00+00:00,-270.74394733819497
2025-04-10 13:00:00+00:00,-270.74394733819497
2025-04-10 14:00:00+00:00,-270.74394733819497
2025-04-10 15:00:00+00:00,-270.74394733819497
2025-04-10 16:00:00+00:00,-270.74394733819497
2025-04-10 17:00:00+00:00,-270.74394733819497
2025-04-10 18:00:00+00:00,-270.74394733819497
2025-04-10 19:00:00+00:00,-270.74394733819497
2025-04-11 13:00:00+00:00,-270.74394733819497
2025-04-11 14:00:00+00:00,-270.74394733819497
2025-04-11 15:00:00+00:00,-270.74394733819497
2025-04-11 16:00:00+00:00,-270.74394733819497
2025-04-11 17:00:00+00:00,-270.74394733819497
2025-04-11 18:00:00+00:00,-270.74394733819497
2025-04-11 19:00:00+00:00,-270.74394733819497
2025-04-14 13:00:00+00:00,-270.74394733819497
2025-04-14 14:00:00+00:00,-270.74394733819497
2025-04-14 15:00:00+00:00,-270.74394733819497
2025-04-14 16:00:00+00:00,-270.74394733819497
2025-04-14 17:00:00+00:00,-270.74394733819497
2025-04-14 18:00:00+00:00,-270.74394733819497
2025-04-14 19:00:00+00:00,-270.74394733819497
2025-04-15 13:00:00+00:00,-270.74394733819497
2025-04-15 14:00:00+00:00,-270.74394733819497
2025-04-15 15:00:00+00:00,-270.74394733819497
2025-04-15 16:00:00+00:00,-270.74394733819497
2025-04-15 17:00:00+00:00,-270.74394733819497
2025-04-15 18:00:00+00:00,-270.74394733819497
2025-04-15 19:00:00+00:00,-270.74394733819497
2025-04-16 13:00:00+00:00,-270.74394733819497
2025-04-16 14:00:00+00:00,-270.74394733819497
2025-04-16 15:00:00+00:00,-270.74394733819497
2025-04-16 16:00:00+00:00,-270.74394733819497
2025-04-16 17:00:00+00:00,-270.74394733819497
2025-04-16 18:00:00+00:00,-270.74394733819497
2025-04-16 19:00:00+00:00,-270.74394733819497
2025-04-17 13:00:00+00:00,-270.74394733819497
2025-04-17 14:00:00+00:00,-270.74394733819497
2025-04-17 15:00:00+00:00,-270.74394733819497
2025-04-17 16:00:00+00:00,-270.74394733819497
2025-04-17 17:00:00+00:00,-270.74394733819497
2025-04-17 18:00:00+00:00,-270.74394733819497
2025-04-17 19:00:00+00:00,-270.74394733819497
2025-04-21 13:00:00+00:00,-270.74394733819497
2025-04-21 14:00:00+00:00,-270.74394733819497
2025-04-21 15:00:00+00:00,-270.74394733819497
2025-04-21 16:00:00+00:00,-270.74394733819497
2025-04-21 17:00:00+00:00,-270.74394733819497
2025-04-21 18:00:00+00:00,-270.74394733819497
2025-04-21 19:00:00+00:00,-270.74394733819497
2025-04-22 13:00:00+00:00,-270.74394733819497
2025-04-22 14:00:00+00:00,-270.74394733819497
2025-04-22 15:00:00+00:00,-270.74394733819497
2025-04-22 16:00:00+00:00,-270.74394733819497
2025-04-22 17:00:00+00:00,-270.74394733819497
2025-04-22 18:00:00+00:00,-270.74394733819497
2025-04-22 19:00:00+00:00,-270.74394733819497
2025-04-23 13:00:00+00:00,-270.74394733819497
2025-04-23 14:00:00+00:00,-270.74394733819497
2025-04-23 15:00:00+00:00,-270.74394733819497
2025-04-23 16:00:00+00:00,-270.74394733819497
2025-04-23 17:00:00+00:00,-270.74394733819497
2025-04-23 18:00:00+00:00,-270.74394733819497
2025-04-23 19:00:00+00:00,-270.74394733819497
2025-04-24 13:00:00+00:00,-270.74394733819497
2025-04-24 14:00:00+00:00,-270.74394733819497
2025-04-24 15:00:00+00:00,-270.74394733819497
2025-04-24 16:00:00+00:00,-270.74394733819497
2025-04-24 17:00:00+00:00,-270.74394733819497
2025-04-24 18:00:00+00:00,-270.74394733819497
2025-04-24 19:00:00+00:00,-270.74394733819497
2025-04-25 13:00:00+00:00,-270.74394733819497
2025-04-25 14:00:00+00:00,-270.74394733819497
2025-04-25 15:00:00+00:00,-270.74394733819497
2025-04-25 16:00:00+00:00,-270.74394733819497
2025-04-25 17:00:00+00:00,-270.74394733819497
2025-04-25 18:00:00+00:00,-270.74394733819497
2025-04-25 19:00:00+00:00,-270.74394733819497
2025-04-28 13:00:00+00:00,-270.74394733819497
2025-04-28 14:00:00+00:00,-270.74394733819497
2025-04-28 15:00:00+00:00,-270.74394733819497
2025-04-28 16:00:00+00:00,-270.74394733819497
2025-04-28 17:00:00+00:00,-270.74394733819497
2025-04-28 18:00:00+00:00,-270.74394733819497
2025-04-28 19:00:00+00:00,-270.74394733819497
2025-04-29 13:00:00+00:00,-270.74394733819497
2025-04-29 14:00:00+00:00,-270.74394733819497
2025-04-29 15:00:00+00:00,-270.74394733819497
2025-04-29 16:00:00+00:00,-270.74394733819497
2025-04-29 17:00:00+00:00,-270.74394733819497
2025-04-29 18:00:00+00:00,-270.74394733819497
2025-04-29 19:00:00+00:00,-270.74394733819497
2025-04-30 13:00:00+00:00,-270.74394733819497
2025-04-30 14:00:00+00:00,-270.74394733819497
2025-04-30 15:00:00+00:00,-270.74394733819497
2025-04-30 16:00:00+00:00,-270.74394733819497
2025-04-30 17:00:00+00:00,-270.74394733819497
2025-04-30 18:00:00+00:00,-270.74394733819497
2025-04-30 19:00:00+00:00,-270.74394733819497
2025-05-01 13:00:00+00:00,-270.74394733819497
2025-05-01 14:00:00+00:00,-270.74394733819497
2025-05-01 15:00:00+00:00,-270.74394733819497
2025-05-01 16:00:00+00:00,-270.74394733819497
2025-05-01 17:00:00+00:00,-270.74394733819497
2025-05-01 18:00:00+00:00,-270.74394733819497
2025-05-01 19:00:00+00:00,-270.74394733819497
2025-05-02 13:00:00+00:00,-270.74394733819497
2025-05-02 14:00:00+00:00,-270.74394733819497
2025-05-02 15:00:00+00:00,-270.74394733819497
2025-05-02 16:00:00+00:00,-270.74394733819497
2025-05-02 17:00:00+00:00,-270.74394733819497
2025-05-02 18:00:00+00:00,-270.74394733819497
2025-05-02 19:00:00+00:00,-270.74394733819497
2025-05-05 13:00:00+00:00,-270.74394733819497
2025-05-05 14:00:00+00:00,-270.74394733819497
2025-05-05 15:00:00+00:00,-270.74394733819497
2025-05-05 16:00:00+00:00,-270.74394733819497
2025-05-05 17:00:00+00:00,-270.74394733819497
2025-05-05 18:00:00+00:00,-270.74394733819497
2025-05-05 19:00:00+00:00,-270.74394733819497
2025-05-06 13:00:00+00:00,-270.74394733819497
2025-05-06 14:00:00+00:00,-270.74394733819497
2025-05-06 15:00:00+00:00,-270.74394733819497
2025-05-06 16:00:00+00:00,-270.74394733819497
2025-05-06 17:00:00+00:00,-270.74394733819497
2025-05-06 18:00:00+00:00,-270.74394733819497
2025-05-06 19:00:00+00:00,-270.74394733819497
2025-05-07 13:00:00+00:00,-270.74394733819497
2025-05-07 14:00:00+00:00,-270.74394733819497
2025-05-07 15:00:00+00:00,-270.74394733819497
2025-05-07 16:00:00+00:00,-270.74394733819497
2025-05-07 17:00:00+00:00,-270.74394733819497
2025-05-07 18:00:00+00:00,-270.74394733819497
2025-05-07 19:00:00+00:00,-270.74394733819497
2025-05-08 13:00:00+00:00,-270.74394733819497
2025-05-08 14:00:00+00:00,-270.74394733819497
2025-05-08 15:00:00+00:00,-270.74394733819497
2025-05-08 16:00:00+00:00,-270.74394733819497
2025-05-08 17:00:00+00:00,-270.74394733819497
2025-05-08 18:00:00+00:00,-270.74394733819497
2025-05-08 19:00:00+00:00,-270.74394733819497
2025-05-09 13:00:00+00:00,-270.74394733819497
2025-05-09 14:00:00+00:00,-270.74394733819497
2025-05-09 15:00:00+00:00,-270.74394733819497
2025-05-09 16:00:00+00:00,-270.74394733819497
2025-05-09 17:00:00+00:00,-270.74394733819497
2025-05-09 18:00:00+00:00,-270.74394733819497
2025-05-09 19:00:00+00:00,-270.74394733819497
2025-05-12 13:00:00+00:00,-270.74394733819497
2025-05-12 14:00:00+00:00,-270.74394733819497
2025-05-12 15:00:00+00:00,-270.74394733819497
2025-05-12 16:00:00+00:00,-270.74394733819497
2025-05-12 17:00:00+00:00,-270.74394733819497
2025-05-12 18:00:00+00:00,-270.74394733819497
2025-05-12 19:00:00+00:00,-270.74394733819497
2025-05-13 13:00:00+00:00,-270.74394733819497
2025-05-13 14:00:00+00:00,-270.74394733819497
2025-05-13 15:00:00+00:00,-270.74394733819497
2025-05-13 16:00:00+00:00,-270.74394733819497
2025-05-13 17:00:00+00:00,-270.74394733819497
2025-05-13 18:00:00+00:00,-270.74394733819497
2025-05-13 19:00:00+00:00,-270.74394733819497
2025-05-14 13:00:00+00:00,-270.74394733819497
2025-05-14 14:00:00+00:00,-270.74394733819497
2025-05-14 15:00:00+00:00,-270.74394733819497
2025-05-14 16:00:00+00:00,-270.74394733819497
2025-05-14 17:00:00+00:00,-270.74394733819497
2025-05-14 18:00:00+00:00,-270.74394733819497
2025-05-14 19:00:00+00:00,-270.74394733819497
2025-05-15 13:00:00+00:00,-270.74394733819497
2025-05-15 14:00:00+00:00,-270.74394733819497
2025-05-15 15:00:00+00:00,-270.74394733819497
2025-05-15 16:00:00+00:00,-270.74394733819497
2025-05-15 17:00:00+00:00,-270.74394733819497
2025-05-15 18:00:00+00:00,-270.74394733819497
2025-05-15 19:00:00+00:00,-270.74394733819497
2025-05-16 13:00:00+00:00,-270.74394733819497
2025-05-16 14:00:00+00:00,-270.74394733819497
2025-05-16 15:00:00+00:00,-270.74394733819497
2025-05-16 16:00:00+00:00,-270.74394733819497
2025-05-16 17:00:00+00:00,-270.74394733819497
2025-05-16 18:00:00+00:00,-270.74394733819497
2025-05-16 19:00:00+00:00,-270.74394733819497
2025-05-19 13:00:00+00:00,-270.74394733819497
2025-05-19 14:00:00+00:00,-270.74394733819497
2025-05-19 15:00:00+00:00,-270.74394733819497
2025-05-19 16:00:00+00:00,-270.74394733819497
2025-05-19 17:00:00+00:00,-270.74394733819497
2025-05-19 18:00:00+00:00,-270.74394733819497
2025-05-19 19:00:00+00:00,-270.74394733819497
2025-05-20 13:00:00+00:00,-270.74394733819497
2025-05-20 14:00:00+00:00,-270.74394733819497
2025-05-20 15:00:00+00:00,-270.74394733819497
2025-05-20 16:00:00+00:00,-270.74394733819497
2025-05-20 17:00:00+00:00,-270.74394733819497
2025-05-20 18:00:00+00:00,-270.74394733819497
2025-05-20 19:00:00+00:00,-270.74394733819497
2025-05-21 13:00:00+00:00,-270.74394733819497
2025-05-21 14:00:00+00:00,-270.74394733819497
2025-05-21 15:00:00+00:00,-270.74394733819497
2025-05-21 16:00:00+00:00,-270.74394733819497
2025-05-21 17:00:00+00:00,-270.74394733819497
2025-05-21 18:00:00+00:00,-270.74394733819497
2025-05-21 19:00:00+00:00,-270.74394733819497
2025-05-22 13:00:00+00:00,-270.74394733819497
2025-05-22 14:00:00+00:00,-270.74394733819497
2025-05-22 15:00:00+00:00,-270.74394733819497
2025-05-22 16:00:00+00:00,-270.74394733819497
2025-05-22 17:00:00+00:00,-270.74394733819497
2025-05-22 18:00:00+00:00,-270.74394733819497
2025-05-22 19:00:00+00:00,-270.74394733819497
2025-05-23 13:00:00+00:00,-270.74394733819497
2025-05-23 14:00:00+00:00,-270.74394733819497
2025-05-23 15:00:00+00:00,-270.74394733819497
2025-05-23 16:00:00+00:00,-270.74394733819497
2025-05-23 17:00:00+00:00,-270.74394733819497
2025-05-23 18:00:00+00:00,-270.74394733819497
2025-05-23 19:00:00+00:00,-270.74394733819497
2025-05-27 13:00:00+00:00,-270.74394733819497
2025-05-27 14:00:00+00:00,-270.74394733819497
2025-05-27 15:00:00+00:00,-270.74394733819497
2025-05-27 16:00:00+00:00,-270.74394733819497
2025-05-27 17:00:00+00:00,-270.74394733819497
2025-05-27 18:00:00+00:00,-270.74394733819497
2025-05-27 19:00:00+00:00,-270.74394733819497
2025-05-28 13:00:00+00:00,-270.74394733819497
2025-05-28 14:00:00+00:00,-270.74394733819497
2025-05-28 15:00:00+00:00,-270.74394733819497
2025-05-28 16:00:00+00:00,-270.74394733819497
2025-05-28 17:00:00+00:00,-270.74394733819497
2025-05-28 18:00:00+00:00,-270.74394733819497
2025-05-28 19:00:00+00:00,-270.74394733819497
2025-05-29 13:00:00+00:00,-270.74394733819497
2025-05-29 14:00:00+00:00,-270.74394733819497
2025-05-29 15:00:00+00:00,-270.74394733819497
2025-05-29 16:00:00+00:00,-270.74394733819497
2025-05-29 17:00:00+00:00,-270.74394733819497
2025-05-29 18:00:00+00:00,-270.74394733819497
2025-05-29 19:00:00+00:00,-270.74394733819497
2025-05-30 13:00:00+00:00,-270.74394733819497
2025-05-30 14:00:00+00:00,-270.74394733819497
2025-05-30 15:00:00+00:00,-270.74394733819497
2025-05-30 16:00:00+00:00,-270.74394733819497
2025-05-30 17:00:00+00:00,-270.74394733819497
2025-05-30 18:00:00+00:00,-270.74394733819497
2025-05-30 19:00:00+00:00,-270.74394733819497
2025-06-02 13:00:00+00:00,-270.74394733819497
2025-06-02 14:00:00+00:00,-270.74394733819497
2025-06-02 15:00:00+00:00,-270.74394733819497
2025-06-02 16:00:00+00:00,-270.74394733819497
2025-06-02 17:00:00+00:00,-270.74394733819497
2025-06-02 18:00:00+00:00,-270.74394733819497
2025-06-02 19:00:00+00:00,-270.74394733819497
2025-06-03 13:00:00+00:00,-270.74394733819497
2025-06-03 14:00:00+00:00,-270.74394733819497
2025-06-03 15:00:00+00:00,-270.74394733819497
2025-06-03 16:00:00+00:00,-270.74394733819497
2025-06-03 17:00:00+00:00,-270.74394733819497
2025-06-03 18:00:00+00:00,-270.74394733819497
2025-06-03 19:00:00+00:00,-270.74394733819497
2025-06-04 13:00:00+00:00,-270.74394733819497
2025-06-04 14:00:00+00:00,-270.74394733819497
2025-06-04 15:00:00+00:00,-270.74394733819497
2025-06-04 16:00:00+00:00,-270.74394733819497
2025-06-04 17:00:00+00:00,-270.74394733819497
2025-06-04 18:00:00+00:00,-270.74394733819497
2025-06-04 19:00:00+00:00,-270.74394733819497
2025-06-05 13:00:00+00:00,-270.74394733819497
2025-06-05 14:00:00+00:00,-270.74394733819497
2025-06-05 15:00:00+00:00,-270.74394733819497
2025-06-05 16:00:00+00:00,-270.74394733819497
2025-06-05 17:00:00+00:00,-270.74394733819497
2025-06-05 18:00:00+00:00,-270.74394733819497
2025-06-05 19:00:00+00:00,-270.74394733819497
2025-06-06 13:00:00+00:00,-270.74394733819497
2025-06-06 14:00:00+00:00,-270.74394733819497
2025-06-06 15:00:00+00:00,-270.74394733819497
2025-06-06 16:00:00+00:00,-270.74394733819497
2025-06-06 17:00:00+00:00,-270.74394733819497
2025-06-06 18:00:00+00:00,-270.74394733819497
2025-06-06 19:00:00+00:00,-270.74394733819497
2025-06-09 13:00:00+00:00,-270.74394733819497
2025-06-09 14:00:00+00:00,-270.74394733819497
2025-06-09 15:00:00+00:00,-270.74394733819497
2025-06-09 16:00:00+00:00,-270.74394733819497
2025-06-09 17:00:00+00:00,-270.74394733819497
2025-06-09 18:00:00+00:00,-270.74394733819497
2025-06-09 19:00:00+00:00,-270.74394733819497
2025-06-10 13:00:00+00:00,-270.74394733819497
2025-06-10 14:00:00+00:00,-270.74394733819497
2025-06-10 15:00:00+00:00,-270.74394733819497
2025-06-10 16:00:00+00:00,-270.74394733819497
2025-06-10 17:00:00+00:00,-270.74394733819497
2025-06-10 18:00:00+00:00,-270.74394733819497
2025-06-10 19:00:00+00:00,-270.74394733819497
2025-06-11 13:00:00+00:00,-270.74394733819497
2025-06-11 14:00:00+00:00,-270.74394733819497
2025-06-11 15:00:00+00:00,-270.74394733819497
2025-06-11 16:00:00+00:00,-270.74394733819497
2025-06-11 17:00:00+00:00,-270.74394733819497
2025-06-11 18:00:00+00:00,-270.74394733819497
2025-06-11 19:00:00+00:00,-270.74394733819497
2025-06-12 13:00:00+00:00,-270.74394733819497
2025-06-12 14:00:00+00:00,-270.74394733819497
2025-06-12 15:00:00+00:00,-270.74394733819497
2025-06-12 16:00:00+00:00,-270.74394733819497
2025-06-12 17:00:00+00:00,-270.74394733819497
2025-06-12 18:00:00+00:00,-270.74394733819497
2025-06-12 19:00:00+00:00,-270.74394733819497
2025-06-13 13:00:00+00:00,-270.74394733819497
2025-06-13 14:00:00+00:00,-270.74394733819497
2025-06-13 15:00:00+00:00,-270.74394733819497
2025-06-13 16:00:00+00:00,-270.74394733819497
2025-06-13 17:00:00+00:00,-270.74394733819497
2025-06-13 18:00:00+00:00,-270.74394733819497
2025-06-13 19:00:00+00:00,-270.74394733819497
2025-06-16 13:00:00+00:00,-270.74394733819497
2025-06-16 14:00:00+00:00,-270.74394733819497
2025-06-16 15:00:00+00:00,-270.74394733819497
2025-06-16 16:00:00+00:00,-270.74394733819497
2025-06-16 17:00:00+00:00,-270.74394733819497
2025-06-16 18:00:00+00:00,-270.74394733819497
2025-06-16 19:00:00+00:00,-270.74394733819497
2025-06-17 13:00:00+00:00,-270.74394733819497
2025-06-17 14:00:00+00:00,-270.74394733819497
2025-06-17 15:00:00+00:00,-270.74394733819497
2025-06-17 16:00:00+00:00,-270.74394733819497
2025-06-17 17:00:00+00:00,-270.74394733819497
2025-06-17 18:00:00+00:00,-270.74394733819497
2025-06-17 19:00:00+00:00,-270.74394733819497
2025-06-18 13:00:00+00:00,-270.74394733819497
2025-06-18 14:00:00+00:00,-270.74394733819497
2025-06-18 15:00:00+00:00,-270.74394733819497
2025-06-18 16:00:00+00:00,-270.74394733819497
2025-06-18 17:00:00+00:00,-270.74394733819497
2025-06-18 18:00:00+00:00,-270.74394733819497
2025-06-18 19:00:00+00:00,-270.74394733819497
2025-06-20 13:00:00+00:00,-270.74394733819497
2025-06-20 14:00:00+00:00,-270.74394733819497
2025-06-20 15:00:00+00:00,-270.74394733819497
2025-06-20 16:00:00+00:00,-270.74394733819497
2025-06-20 17:00:00+00:00,-270.74394733819497
2025-06-20 18:00:00+00:00,-270.74394733819497
2025-06-20 19:00:00+00:00,-270.74394733819497
2025-06-23 13:00:00+00:00,-270.74394733819497
2025-06-23 14:00:00+00:00,-270.74394733819497
2025-06-23 15:00:00+00:00,-270.74394733819497
2025-06-23 16:00:00+00:00,-270.74394733819497
2025-06-23 17:00:00+00:00,-270.74394733819497
2025-06-23 18:00:00+00:00,-270.74394733819497
2025-06-23 19:00:00+00:00,-270.74394733819497
2025-06-24 13:00:00+00:00,-270.74394733819497
2025-06-24 14:00:00+00:00,-270.74394733819497
2025-06-24 15:00:00+00:00,-270.74394733819497
2025-06-24 16:00:00+00:00,-270.74394733819497
2025-06-24 17:00:00+00:00,-270.74394733819497
2025-06-24 18:00:00+00:00,-270.74394733819497
2025-06-24 19:00:00+00:00,-270.74394733819497
2025-06-25 13:00:00+00:00,-270.74394733819497
2025-06-25 14:00:00+00:00,-270.74394733819497
2025-06-25 15:00:00+00:00,-270.74394733819497
2025-06-25 16:00:00+00:00,-270.74394733819497
2025-06-25 17:00:00+00:00,-270.74394733819497
2025-06-25 18:00:00+00:00,-270.74394733819497
2025-06-25 19:00:00+00:00,-270.74394733819497
2025-06-26 13:00:00+00:00,-270.74394733819497
2025-06-26 14:00:00+00:00,-270.74394733819497
2025-06-26 15:00:00+00:00,-270.74394733819497
2025-06-26 16:00:00+00:00,-270.74394733819497
2025-06-26 17:00:00+00:00,-270.74394733819497
2025-06-26 18:00:00+00:00,-270.74394733819497
2025-06-26 19:00:00+00:00,-270.74394733819497
2025-06-27 13:00:00+00:00,-270.74394733819497
2025-06-27 14:00:00+00:00,-270.74394733819497
2025-06-27 15:00:00+00:00,-270.74394733819497
2025-06-27 16:00:00+00:00,-270.74394733819497
2025-06-27 17:00:00+00:00,-270.74394733819497
2025-06-27 18:00:00+00:00,-270.74394733819497
2025-06-27 19:00:00+00:00,-270.74394733819497
2025-06-30 13:00:00+00:00,-270.74394733819497
2025-06-30 14:00:00+00:00,-270.74394733819497
2025-06-30 15:00:00+00:00,-270.74394733819497
2025-06-30 16:00:00+00:00,-270.74394733819497
2025-06-30 17:00:00+00:00,-270.74394733819497
2025-06-30 18:00:00+00:00,-270.74394733819497
2025-06-30 19:00:00+00:00,-270.74394733819497
2025-07-01 13:00:00+00:00,-270.74394733819497
2025-07-01 14:00:00+00:00,-270.74394733819497
2025-07-01 15:00:00+00:00,-270.74394733819497
2025-07-01 16:00:00+00:00,-270.74394733819497
2025-07-01 17:00:00+00:00,-270.74394733819497
2025-07-01 18:00:00+00:00,-270.74394733819497
2025-07-01 19:00:00+00:00,-270.74394733819497
2025-07-02 13:00:00+00:00,-270.74394733819497
2025-07-02 14:00:00+00:00,-270.74394733819497
2025-07-02 15:00:00+00:00,-270.74394733819497
2025-07-02 16:00:00+00:00,-270.74394733819497
2025-07-02 17:00:00+00:00,-270.74394733819497
2025-07-02 18:00:00+00:00,-270.74394733819497
2025-07-02 19:00:00+00:00,-270.74394733819497
2025-07-03 13:00:00+00:00,-270.74394733819497
2025-07-03 14:00:00+00:00,-270.74394733819497
2025-07-03 15:00:00+00:00,-270.74394733819497
2025-07-07 13:00:00+00:00,-270.74394733819497
2025-07-07 14:00:00+00:00,-270.74394733819497
2025-07-07 15:00:00+00:00,-270.74394733819497
2025-07-07 16:00:00+00:00,-270.74394733819497
2025-07-07 17:00:00+00:00,-270.74394733819497
2025-07-07 18:00:00+00:00,-270.74394733819497
2025-07-07 19:00:00+00:00,-270.74394733819497
2025-07-08 13:00:00+00:00,-270.74394733819497
2025-07-08 14:00:00+00:00,-270.74394733819497
2025-07-08 15:00:00+00:00,-270.74394733819497
2025-07-08 16:00:00+00:00,-270.74394733819497
2025-07-08 17:00:00+00:00,-270.74394733819497
2025-07-08 18:00:00+00:00,-270.74394733819497
2025-07-08 19:00:00+00:00,-270.74394733819497
2025-07-09 13:00:00+00:00,-270.74394733819497
2025-07-09 14:00:00+00:00,-270.74394733819497
2025-07-09 15:00:00+00:00,-270.74394733819497
2025-07-09 16:00:00+00:00,-270.74394733819497
2025-07-09 17:00:00+00:00,-270.74394733819497
2025-07-09 18:00:00+00:00,-270.74394733819497
2025-07-09 19:00:00+00:00,-270.74394733819497
2025-07-10 13:00:00+00:00,-270.74394733819497
2025-07-10 14:00:00+00:00,-270.74394733819497
2025-07-10 15:00:00+00:00,-270.74394733819497
2025-07-10 16:00:00+00:00,-270.74394733819497
2025-07-10 17:00:00+00:00,-270.74394733819497
2025-07-10 18:00:00+00:00,-270.74394733819497
2025-07-10 19:00:00+00:00,-270.74394733819497
2025-07-11 13:00:00+00:00,-270.74394733819497
2025-07-11 14:00:00+00:00,-270.74394733819497
2025-07-11 15:00:00+00:00,-270.74394733819497
2025-07-11 16:00:00+00:00,-270.74394733819497
2025-07-11 17:00:00+00:00,-270.74394733819497
2025-07-11 18:00:00+00:00,-270.74394733819497
2025-07-11 19:00:00+00:00,-270.74394733819497
2025-07-14 13:00:00+00:00,-270.74394733819497
2025-07-14 14:00:00+00:00,-270.74394733819497
2025-07-14 15:00:00+00:00,-270.74394733819497
2025-07-14 16:00:00+00:00,-270.74394733819497
2025-07-14 17:00:00+00:00,-270.74394733819497
2025-07-14 18:00:00+00:00,-270.74394733819497
2025-07-14 19:00:00+00:00,-270.74394733819497
2025-07-15 13:00:00+00:00,-270.74394733819497
2025-07-15 14:00:00+00:00,-270.74394733819497
2025-07-15 15:00:00+00:00,-270.74394733819497
2025-07-15 16:00:00+00:00,-270.74394733819497
2025-07-15 17:00:00+00:00,-270.74394733819497
2025-07-15 18:00:00+00:00,-270.74394733819497
2025-07-15 19:00:00+00:00,-270.74394733819497
2025-07-16 13:00:00+00:00,-270.74394733819497
2025-07-16 14:00:00+00:00,-270.74394733819497
2025-07-16 15:00:00+00:00,-270.74394733819497
2025-07-16 16:00:00+00:00,-270.74394733819497
2025-07-16 17:00:00+00:00,-270.74394733819497
2025-07-16 18:00:00+00:00,-270.74394733819497
2025-07-16 19:00:00+00:00,-270.74394733819497
2025-07-17 13:00:00+00:00,-270.74394733819497
2025-07-17 14:00:00+00:00,-270.74394733819497
2025-07-17 15:00:00+00:00,-270.74394733819497
2025-07-17 16:00:00+00:00,-270.74394733819497
2025-07-17 17:00:00+00:00,-270.74394733819497
2025-07-17 18:00:00+00:00,-270.74394733819497
2025-07-17 19:00:00+00:00,-270.74394733819497
2025-07-18 13:00:00+00:00,-270.74394733819497
2025-07-18 14:00:00+00:00,-270.74394733819497
2025-07-18 15:00:00+00:00,-270.74394733819497
2025-07-18 16:00:00+00:00,-270.74394733819497
2025-07-18 17:00:00+00:00,-270.74394733819497
2025-07-18 18:00:00+00:00,-270.74394733819497
2025-07-18 19:00:00+00:00,-270.74394733819497
2025-07-21 13:00:00+00:00,-270.74394733819497
2025-07-21 14:00:00+00:00,-270.74394733819497
2025-07-21 15:00:00+00:00,-270.74394733819497
2025-07-21 16:00:00+00:00,-270.74394733819497
2025-07-21 17:00:00+00:00,-270.74394733819497
2025-07-21 18:00:00+00:00,-270.74394733819497
2025-07-21 19:00:00+00:00,-270.74394733819497
2025-07-22 13:00:00+00:00,-270.74394733819497
2025-07-22 14:00:00+00:00,-270.74394733819497
2025-07-22 15:00:00+00:00,-270.74394733819497
2025-07-22 16:00:00+00:00,-270.74394733819497
2025-07-22 17:00:00+00:00,-270.74394733819497
2025-07-22 18:00:00+00:00,-270.74394733819497
2025-07-22 19:00:00+00:00,-270.74394733819497
2025-07-23 13:00:00+00:00,-270.74394733819497
2025-07-23 14:00:00+00:00,-270.74394733819497
2025-07-23 15:00:00+00:00,-270.74394733819497
2025-07-23 16:00:00+00:00,-270.74394733819497
2025-07-23 17:00:00+00:00,-270.74394733819497
2025-07-23 18:00:00+00:00,-270.74394733819497
2025-07-23 19:00:00+00:00,-270.74394733819497
2025-07-24 13:00:00+00:00,-270.74394733819497
2025-07-24 14:00:00+00:00,-270.74394733819497
2025-07-24 15:00:00+00:00,-270.74394733819497
2025-07-24 16:00:00+00:00,-270.74394733819497
2025-07-24 17:00:00+00:00,-270.74394733819497
2025-07-24 18:00:00+00:00,-270.74394733819497
2025-07-24 19:00:00+00:00,-270.74394733819497
2025-07-25 13:00:00+00:00,-270.74394733819497
2025-07-25 14:00:00+00:00,-270.74394733819497
2025-07-25 15:00:00+00:00,-270.74394733819497
2025-07-25 16:00:00+00:00,-270.74394733819497
2025-07-25 17:00:00+00:00,-270.74394733819497
2025-07-25 18:00:00+00:00,-270.74394733819497
2025-07-25 19:00:00+00:00,-270.74394733819497
2025-07-28 13:00:00+00:00,-270.74394733819497
2025-07-28 14:00:00+00:00,-270.74394733819497
2025-07-28 15:00:00+00:00,-270.74394733819497
2025-07-28 16:00:00+00:00,-270.74394733819497
2025-07-28 17:00:00+00:00,-270.74394733819497
2025-07-28 18:00:00+00:00,-270.74394733819497
2025-07-28 19:00:00+00:00,-270.74394733819497
2025-07-29 13:00:00+00:00,-270.74394733819497
2025-07-29 14:00:00+00:00,-270.74394733819497
2025-07-29 15:00:00+00:00,-270.74394733819497
2025-07-29 16:00:00+00:00,-270.74394733819497
2025-07-29 17:00:00+00:00,-270.74394733819497
2025-07-29 18:00:00+00:00,-270.74394733819497
2025-07-29 19:00:00+00:00,-270.74394733819497
2025-07-30 13:00:00+00:00,-270.74394733819497
2025-07-30 14:00:00+00:00,-270.74394733819497
2025-07-30 15:00:00+00:00,-270.74394733819497
2025-07-30 16:00:00+00:00,-270.74394733819497
2025-07-30 17:00:00+00:00,-270.74394733819497
2025-07-30 18:00:00+00:00,-270.74394733819497
2025-07-30 19:00:00+00:00,-270.74394733819497
2025-07-31 13:00:00+00:00,-270.74394733819497
2025-07-31 14:00:00+00:00,-270.74394733819497
2025-07-31 15:00:00+00:00,-270.74394733819497
2025-07-31 16:00:00+00:00,-270.74394733819497
2025-07-31 17:00:00+00:00,-270.74394733819497
2025-07-31 18:00:00+00:00,-270.74394733819497
2025-07-31 19:00:00+00:00,-270.74394733819497
2025-08-01 13:00:00+00:00,-270.74394733819497
2025-08-01 14:00:00+00:00,-270.74394733819497
2025-08-01 15:00:00+00:00,-270.74394733819497
2025-08-01 16:00:00+00:00,-270.74394733819497
2025-08-01 17:00:00+00:00,-270.74394733819497
2025-08-01 18:00:00+00:00,-270.74394733819497
2025-08-01 19:00:00+00:00,-270.74394733819497
2025-08-04 13:00:00+00:00,-270.74394733819497
2025-08-04 14:00:00+00:00,-270.74394733819497
2025-08-04 15:00:00+00:00,-270.74394733819497
2025-08-04 16:00:00+00:00,-270.74394733819497
2025-08-04 17:00:00+00:00,-270.74394733819497
2025-08-04 18:00:00+00:00,-270.74394733819497
2025-08-04 19:00:00+00:00,-270.74394733819497
2025-08-05 13:00:00+00:00,-270.74394733819497
2025-08-05 14:00:00+00:00,-270.74394733819497
2025-08-05 15:00:00+00:00,-270.74394733819497
2025-08-05 16:00:00+00:00,-270.74394733819497
2025-08-05 17:00:00+00:00,-270.74394733819497
2025-08-05 18:00:00+00:00,-270.74394733819497
2025-08-05 19:00:00+00:00,-270.74394733819497
2025-08-06 13:00:00+00:00,-270.74394733819497
2025-08-06 14:00:00+00:00,-270.74394733819497
2025-08-06 15:00:00+00:00,-270.74394733819497
2025-08-06 16:00:00+00:00,-270.74394733819497
2025-08-06 17:00:00+00:00,-270.74394733819497
2025-08-06 18:00:00+00:00,-270.74394733819497
2025-08-06 19:00:00+00:00,-270.74394733819497
2025-08-07 13:00:00+00:00,-270.74394733819497
2025-08-07 14:00:00+00:00,-270.74394733819497
2025-08-07 15:00:00+00:00,-270.74394733819497
2025-08-07 16:00:00+00:00,-270.74394733819497
2025-08-07 17:00:00+00:00,-270.74394733819497
2025-08-07 18:00:00+00:00,-270.74394733819497
2025-08-07 19:00:00+00:00,-270.74394733819497
2025-08-08 13:00:00+00:00,-270.74394733819497
2025-08-08 14:00:00+00:00,-270.74394733819497
2025-08-08 15:00:00+00:00,-270.74394733819497
2025-08-08 16:00:00+00:00,-270.74394733819497
2025-08-08 17:00:00+00:00,-270.74394733819497
2025-08-08 18:00:00+00:00,-270.74394733819497
2025-08-08 19:00:00+00:00,-270.74394733819497
2025-08-11 13:00:00+00:00,-270.74394733819497
2025-08-11 14:00:00+00:00,-270.74394733819497
2025-08-11 15:00:00+00:00,-270.74394733819497
2025-08-11 16:00:00+00:00,-270.74394733819497
2025-08-11 17:00:00+00:00,-270.74394733819497
2025-08-11 18:00:00+00:00,-270.74394733819497
2025-08-11 19:00:00+00:00,-270.74394733819497
2025-08-12 13:00:00+00:00,-270.74394733819497
2025-08-12 14:00:00+00:00,-270.74394733819497
2025-08-12 15:00:00+00:00,-270.74394733819497
2025-08-12 16:00:00+00:00,-270.74394733819497
2025-08-12 17:00:00+00:00,-270.74394733819497
2025-08-12 18:00:00+00:00,-270.74394733819497
2025-08-12 19:00:00+00:00,-270.74394733819497
2025-08-13 13:00:00+00:00,-270.74394733819497
2025-08-13 14:00:00+00:00,-270.74394733819497
2025-08-13 15:00:00+00:00,-270.74394733819497
2025-08-13 16:00:00+00:00,-270.74394733819497
2025-08-13 17:00:00+00:00,-270.74394733819497
2025-08-13 18:00:00+00:00,-270.74394733819497
2025-08-13 19:00:00+00:00,-270.74394733819497
2025-08-14 13:00:00+00:00,-270.74394733819497
2025-08-14 14:00:00+00:00,-270.74394733819497
2025-08-14 15:00:00+00:00,-270.74394733819497
2025-08-14 16:00:00+00:00,-270.74394733819497
2025-08-14 17:00:00+00:00,-270.74394733819497
2025-08-14 18:00:00+00:00,-270.74394733819497
2025-08-14 19:00:00+00:00,-270.74394733819497
2025-08-15 13:00:00+00:00,-270.74394733819497
2025-08-15 14:00:00+00:00,-270.74394733819497
2025-08-15 15:00:00+00:00,-270.74394733819497
2025-08-15 16:00:00+00:00,-270.74394733819497
2025-08-15 17:00:00+00:00,-270.74394733819497
2025-08-15 18:00:00+00:00,-270.74394733819497
2025-08-15 19:00:00+00:00,-270.74394733819497
2025-08-18 13:00:00+00:00,-270.74394733819497
2025-08-18 14:00:00+00:00,-270.74394733819497
2025-08-18 15:00:00+00:00,-270.74394733819497
2025-08-18 16:00:00+00:00,-270.74394733819497
2025-08-18 17:00:00+00:00,-270.74394733819497
2025-08-18 18:00:00+00:00,-270.74394733819497
2025-08-18 19:00:00+00:00,-270.74394733819497
2025-08-19 13:00:00+00:00,-270.74394733819497
2025-08-19 14:00:00+00:00,-270.74394733819497
2025-08-19 15:00:00+00:00,-270.74394733819497
2025-08-19 16:00:00+00:00,-270.74394733819497
2025-08-19 17:00:00+00:00,-270.74394733819497
2025-08-19 18:00:00+00:00,-270.74394733819497
2025-08-19 19:00:00+00:00,-270.74394733819497
2025-08-20 13:00:00+00:00,-270.74394733819497
2025-08-20 14:00:00+00:00,-270.74394733819497
2025-08-20 15:00:00+00:00,-270.74394733819497
2025-08-20 16:00:00+00:00,-270.74394733819497
2025-08-20 17:00:00+00:00,-270.74394733819497
2025-08-20 18:00:00+00:00,-270.74394733819497
2025-08-20 19:00:00+00:00,-270.74394733819497
2025-08-21 13:00:00+00:00,-270.74394733819497
2025-08-21 14:00:00+00:00,-270.74394733819497
2025-08-21 15:00:00+00:00,-270.74394733819497
2025-08-21 16:00:00+00:00,-270.74394733819497
2025-08-21 17:00:00+00:00,-270.74394733819497
2025-08-21 18:00:00+00:00,-270.74394733819497
2025-08-21 19:00:00+00:00,-270.74394733819497
2025-08-22 13:00:00+00:00,-270.74394733819497
2025-08-22 14:00:00+00:00,-270.74394733819497
2025-08-22 15:00:00+00:00,-270.74394733819497
2025-08-22 16:00:00+00:00,-270.74394733819497
2025-08-22 17:00:00+00:00,-270.74394733819497
2025-08-22 18:00:00+00:00,-270.74394733819497
2025-08-22 19:00:00+00:00,-270.74394733819497
2025-08-25 13:00:00+00:00,-270.74394733819497
2025-08-25 14:00:00+00:00,-270.74394733819497
2025-08-25 15:00:00+00:00,-270.74394733819497
2025-08-25 16:00:00+00:00,-270.74394733819497
2025-08-25 17:00:00+00:00,-270.74394733819497
2025-08-25 18:00:00+00:00,-270.74394733819497
2025-08-25 19:00:00+00:00,-270.74394733819497
2025-08-26 13:00:00+00:00,-270.74394733819497
2025-08-26 14:00:00+00:00,-270.74394733819497
2025-08-26 15:00:00+00:00,-270.74394733819497
2025-08-26 16:00:00+00:00,-270.74394733819497
2025-08-26 17:00:00+00:00,-270.74394733819497
2025-08-26 18:00:00+00:00,-270.74394733819497
2025-08-26 19:00:00+00:00,-270.74394733819497
2025-08-27 13:00:00+00:00,-270.74394733819497
2025-08-27 14:00:00+00:00,-270.74394733819497
2025-08-27 15:00:00+00:00,-270.74394733819497
2025-08-27 16:00:00+00:00,-270.74394733819497
2025-08-27 17:00:00+00:00,-270.74394733819497
2025-08-27 18:00:00+00:00,-270.74394733819497
2025-08-27 19:00:00+00:00,-270.74394733819497
2025-08-28 13:00:00+00:00,-270.74394733819497
2025-08-28 14:00:00+00:00,-270.74394733819497
2025-08-28 15:00:00+00:00,-270.74394733819497
