Date,0
2024-01-02 14:00:00+00:00,0.0
2024-01-02 15:00:00+00:00,0.0
2024-01-02 16:00:00+00:00,0.0
2024-01-02 17:00:00+00:00,0.0
2024-01-02 18:00:00+00:00,0.0
2024-01-02 19:00:00+00:00,0.0
2024-01-02 20:00:00+00:00,0.0
2024-01-03 14:00:00+00:00,0.0
2024-01-03 15:00:00+00:00,0.0
2024-01-03 16:00:00+00:00,0.0
2024-01-03 17:00:00+00:00,0.0
2024-01-03 18:00:00+00:00,0.0
2024-01-03 19:00:00+00:00,0.0
2024-01-03 20:00:00+00:00,0.0
2024-01-04 14:00:00+00:00,0.0
2024-01-04 15:00:00+00:00,0.0
2024-01-04 16:00:00+00:00,0.0
2024-01-04 17:00:00+00:00,0.0
2024-01-04 18:00:00+00:00,0.0
2024-01-04 19:00:00+00:00,0.0
2024-01-04 20:00:00+00:00,0.0
2024-01-05 14:00:00+00:00,0.0
2024-01-05 15:00:00+00:00,0.0
2024-01-05 16:00:00+00:00,0.0
2024-01-05 17:00:00+00:00,0.0
2024-01-05 18:00:00+00:00,0.0
2024-01-05 19:00:00+00:00,0.0
2024-01-05 20:00:00+00:00,0.0
2024-01-08 14:00:00+00:00,0.0
2024-01-08 15:00:00+00:00,0.0
2024-01-08 16:00:00+00:00,0.0
2024-01-08 17:00:00+00:00,0.0
2024-01-08 18:00:00+00:00,0.0
2024-01-08 19:00:00+00:00,0.0
2024-01-08 20:00:00+00:00,0.0
2024-01-09 14:00:00+00:00,0.0
2024-01-09 15:00:00+00:00,0.0
2024-01-09 16:00:00+00:00,0.0
2024-01-09 17:00:00+00:00,0.0
2024-01-09 18:00:00+00:00,0.0
2024-01-09 19:00:00+00:00,0.0
2024-01-09 20:00:00+00:00,0.0
2024-01-10 14:00:00+00:00,0.0
2024-01-10 15:00:00+00:00,0.0
2024-01-10 16:00:00+00:00,0.0
2024-01-10 17:00:00+00:00,0.0
2024-01-10 18:00:00+00:00,0.0
2024-01-10 19:00:00+00:00,0.0
2024-01-10 20:00:00+00:00,0.0
2024-01-11 14:00:00+00:00,0.0
2024-01-11 15:00:00+00:00,0.0
2024-01-11 16:00:00+00:00,0.0
2024-01-11 17:00:00+00:00,0.0
2024-01-11 18:00:00+00:00,0.0
2024-01-11 19:00:00+00:00,0.0
2024-01-11 20:00:00+00:00,0.0
2024-01-12 14:00:00+00:00,0.0
2024-01-12 15:00:00+00:00,0.0
2024-01-12 16:00:00+00:00,0.0
2024-01-12 17:00:00+00:00,0.0
2024-01-12 18:00:00+00:00,0.0
2024-01-12 19:00:00+00:00,0.0
2024-01-12 20:00:00+00:00,0.0
2024-01-16 14:00:00+00:00,0.0
2024-01-16 15:00:00+00:00,0.0
2024-01-16 16:00:00+00:00,0.0
2024-01-16 17:00:00+00:00,0.0
2024-01-16 18:00:00+00:00,0.0
2024-01-16 19:00:00+00:00,0.0
2024-01-16 20:00:00+00:00,0.0
2024-01-17 14:00:00+00:00,0.0
2024-01-17 15:00:00+00:00,0.0
2024-01-17 16:00:00+00:00,0.0
2024-01-17 17:00:00+00:00,0.0
2024-01-17 18:00:00+00:00,0.0
2024-01-17 19:00:00+00:00,0.0
2024-01-17 20:00:00+00:00,0.0
2024-01-18 14:00:00+00:00,0.0
2024-01-18 15:00:00+00:00,0.0
2024-01-18 16:00:00+00:00,0.0
2024-01-18 17:00:00+00:00,0.0
2024-01-18 18:00:00+00:00,0.0
2024-01-18 19:00:00+00:00,0.0
2024-01-18 20:00:00+00:00,0.0
2024-01-19 14:00:00+00:00,0.0
2024-01-19 15:00:00+00:00,0.0
2024-01-19 16:00:00+00:00,0.0
2024-01-19 17:00:00+00:00,0.0
2024-01-19 18:00:00+00:00,0.0
2024-01-19 19:00:00+00:00,0.0
2024-01-19 20:00:00+00:00,0.0
2024-01-22 14:00:00+00:00,0.0
2024-01-22 15:00:00+00:00,0.0
2024-01-22 16:00:00+00:00,0.0
2024-01-22 17:00:00+00:00,0.0
2024-01-22 18:00:00+00:00,0.0
2024-01-22 19:00:00+00:00,0.0
2024-01-22 20:00:00+00:00,0.0
2024-01-23 14:00:00+00:00,0.0
2024-01-23 15:00:00+00:00,0.0
2024-01-23 16:00:00+00:00,0.0
2024-01-23 17:00:00+00:00,0.0
2024-01-23 18:00:00+00:00,0.0
2024-01-23 19:00:00+00:00,0.0
2024-01-23 20:00:00+00:00,0.0
2024-01-24 14:00:00+00:00,0.0
2024-01-24 15:00:00+00:00,0.0
2024-01-24 16:00:00+00:00,0.0
2024-01-24 17:00:00+00:00,0.0
2024-01-24 18:00:00+00:00,0.0
2024-01-24 19:00:00+00:00,0.0
2024-01-24 20:00:00+00:00,0.0
2024-01-25 14:00:00+00:00,0.0
2024-01-25 15:00:00+00:00,0.0
2024-01-25 16:00:00+00:00,0.0
2024-01-25 17:00:00+00:00,0.0
2024-01-25 18:00:00+00:00,0.0
2024-01-25 19:00:00+00:00,0.0
2024-01-25 20:00:00+00:00,0.0
2024-01-26 14:00:00+00:00,0.0
2024-01-26 15:00:00+00:00,0.0
2024-01-26 16:00:00+00:00,0.0
2024-01-26 17:00:00+00:00,0.0
2024-01-26 18:00:00+00:00,0.0
2024-01-26 19:00:00+00:00,0.0
2024-01-26 20:00:00+00:00,0.0
2024-01-29 14:00:00+00:00,0.0
2024-01-29 15:00:00+00:00,0.0
2024-01-29 16:00:00+00:00,0.0
2024-01-29 17:00:00+00:00,0.0
2024-01-29 18:00:00+00:00,0.0
2024-01-29 19:00:00+00:00,0.0
2024-01-29 20:00:00+00:00,0.0
2024-01-30 14:00:00+00:00,0.0
2024-01-30 15:00:00+00:00,0.0
2024-01-30 16:00:00+00:00,0.0
2024-01-30 17:00:00+00:00,0.0
2024-01-30 18:00:00+00:00,0.0
2024-01-30 19:00:00+00:00,0.0
2024-01-30 20:00:00+00:00,0.0
2024-01-31 14:00:00+00:00,0.0
2024-01-31 15:00:00+00:00,0.0
2024-01-31 16:00:00+00:00,0.0
2024-01-31 17:00:00+00:00,0.0
2024-01-31 18:00:00+00:00,0.0
2024-01-31 19:00:00+00:00,0.0
2024-01-31 20:00:00+00:00,0.0
2024-02-01 14:00:00+00:00,0.0
2024-02-01 15:00:00+00:00,0.0
2024-02-01 16:00:00+00:00,0.0
2024-02-01 17:00:00+00:00,0.0
2024-02-01 18:00:00+00:00,0.0
2024-02-01 19:00:00+00:00,0.0
2024-02-01 20:00:00+00:00,0.0
2024-02-02 14:00:00+00:00,0.0
2024-02-02 15:00:00+00:00,0.0
2024-02-02 16:00:00+00:00,0.0
2024-02-02 17:00:00+00:00,0.0
2024-02-02 18:00:00+00:00,0.0
2024-02-02 19:00:00+00:00,0.0
2024-02-02 20:00:00+00:00,0.0
2024-02-05 14:00:00+00:00,0.0
2024-02-05 15:00:00+00:00,0.0
2024-02-05 16:00:00+00:00,0.0
2024-02-05 17:00:00+00:00,0.0
2024-02-05 18:00:00+00:00,0.0
2024-02-05 19:00:00+00:00,0.0
2024-02-05 20:00:00+00:00,0.0
2024-02-06 14:00:00+00:00,0.0
2024-02-06 15:00:00+00:00,0.0
2024-02-06 16:00:00+00:00,0.0
2024-02-06 17:00:00+00:00,0.0
2024-02-06 18:00:00+00:00,0.0
2024-02-06 19:00:00+00:00,0.0
2024-02-06 20:00:00+00:00,0.0
2024-02-07 14:00:00+00:00,0.0
2024-02-07 15:00:00+00:00,0.0
2024-02-07 16:00:00+00:00,0.0
2024-02-07 17:00:00+00:00,0.0
2024-02-07 18:00:00+00:00,0.0
2024-02-07 19:00:00+00:00,0.0
2024-02-07 20:00:00+00:00,0.0
2024-02-08 14:00:00+00:00,0.0
2024-02-08 15:00:00+00:00,0.0
2024-02-08 16:00:00+00:00,0.0
2024-02-08 17:00:00+00:00,0.0
2024-02-08 18:00:00+00:00,0.0
2024-02-08 19:00:00+00:00,0.0
2024-02-08 20:00:00+00:00,0.0
2024-02-09 14:00:00+00:00,0.0
2024-02-09 15:00:00+00:00,0.0
2024-02-09 16:00:00+00:00,0.0
2024-02-09 17:00:00+00:00,0.0
2024-02-09 18:00:00+00:00,0.0
2024-02-09 19:00:00+00:00,0.0
2024-02-09 20:00:00+00:00,0.0
2024-02-12 14:00:00+00:00,0.0
2024-02-12 15:00:00+00:00,0.0
2024-02-12 16:00:00+00:00,0.0
2024-02-12 17:00:00+00:00,0.0
2024-02-12 18:00:00+00:00,0.0
2024-02-12 19:00:00+00:00,0.0
2024-02-12 20:00:00+00:00,0.0
2024-02-13 14:00:00+00:00,0.0
2024-02-13 15:00:00+00:00,0.0
2024-02-13 16:00:00+00:00,0.0
2024-02-13 17:00:00+00:00,0.0
2024-02-13 18:00:00+00:00,0.0
2024-02-13 19:00:00+00:00,0.0
2024-02-13 20:00:00+00:00,0.0
2024-02-14 14:00:00+00:00,0.0
2024-02-14 15:00:00+00:00,0.0
2024-02-14 16:00:00+00:00,0.0
2024-02-14 17:00:00+00:00,0.0
2024-02-14 18:00:00+00:00,0.0
2024-02-14 19:00:00+00:00,0.0
2024-02-14 20:00:00+00:00,0.0
2024-02-15 14:00:00+00:00,0.0
2024-02-15 15:00:00+00:00,0.0
2024-02-15 16:00:00+00:00,0.0
2024-02-15 17:00:00+00:00,0.0
2024-02-15 18:00:00+00:00,0.0
2024-02-15 19:00:00+00:00,0.0
2024-02-15 20:00:00+00:00,0.0
2024-02-16 14:00:00+00:00,0.0
2024-02-16 15:00:00+00:00,0.0
2024-02-16 16:00:00+00:00,0.0
2024-02-16 17:00:00+00:00,0.0
2024-02-16 18:00:00+00:00,0.0
2024-02-16 19:00:00+00:00,0.0
2024-02-16 20:00:00+00:00,0.0
2024-02-20 14:00:00+00:00,0.0
2024-02-20 15:00:00+00:00,0.0
2024-02-20 16:00:00+00:00,0.0
2024-02-20 17:00:00+00:00,0.0
2024-02-20 18:00:00+00:00,0.0
2024-02-20 19:00:00+00:00,0.0
2024-02-20 20:00:00+00:00,0.0
2024-02-21 14:00:00+00:00,0.0
2024-02-21 15:00:00+00:00,0.0
2024-02-21 16:00:00+00:00,0.0
2024-02-21 17:00:00+00:00,0.0
2024-02-21 18:00:00+00:00,0.0
2024-02-21 19:00:00+00:00,0.0
2024-02-21 20:00:00+00:00,0.0
2024-02-22 14:00:00+00:00,0.0
2024-02-22 15:00:00+00:00,0.0
2024-02-22 16:00:00+00:00,0.0
2024-02-22 17:00:00+00:00,0.0
2024-02-22 18:00:00+00:00,0.0
2024-02-22 19:00:00+00:00,0.0
2024-02-22 20:00:00+00:00,0.0
2024-02-23 14:00:00+00:00,0.0
2024-02-23 15:00:00+00:00,0.0
2024-02-23 16:00:00+00:00,0.0
2024-02-23 17:00:00+00:00,0.0
2024-02-23 18:00:00+00:00,0.0
2024-02-23 19:00:00+00:00,0.0
2024-02-23 20:00:00+00:00,0.0
2024-02-26 14:00:00+00:00,0.0
2024-02-26 15:00:00+00:00,0.0
2024-02-26 16:00:00+00:00,0.0
2024-02-26 17:00:00+00:00,0.0
2024-02-26 18:00:00+00:00,0.0
2024-02-26 19:00:00+00:00,0.0
2024-02-26 20:00:00+00:00,0.0
2024-02-27 14:00:00+00:00,0.0
2024-02-27 15:00:00+00:00,0.0
2024-02-27 16:00:00+00:00,0.0
2024-02-27 17:00:00+00:00,0.0
2024-02-27 18:00:00+00:00,0.0
2024-02-27 19:00:00+00:00,0.0
2024-02-27 20:00:00+00:00,0.0
2024-02-28 14:00:00+00:00,0.0
2024-02-28 15:00:00+00:00,0.0
2024-02-28 16:00:00+00:00,0.0
2024-02-28 17:00:00+00:00,0.0
2024-02-28 18:00:00+00:00,0.0
2024-02-28 19:00:00+00:00,0.0
2024-02-28 20:00:00+00:00,0.0
2024-02-29 14:00:00+00:00,0.0
2024-02-29 15:00:00+00:00,0.0
2024-02-29 16:00:00+00:00,0.0
2024-02-29 17:00:00+00:00,0.0
2024-02-29 18:00:00+00:00,0.0
2024-02-29 19:00:00+00:00,0.0
2024-02-29 20:00:00+00:00,0.0
2024-03-01 14:00:00+00:00,0.0
2024-03-01 15:00:00+00:00,0.0
2024-03-01 16:00:00+00:00,0.0
2024-03-01 17:00:00+00:00,0.0
2024-03-01 18:00:00+00:00,0.0
2024-03-01 19:00:00+00:00,0.0
2024-03-01 20:00:00+00:00,0.0
2024-03-04 14:00:00+00:00,0.0
2024-03-04 15:00:00+00:00,0.0
2024-03-04 16:00:00+00:00,0.0
2024-03-04 17:00:00+00:00,0.0
2024-03-04 18:00:00+00:00,0.0
2024-03-04 19:00:00+00:00,0.0
2024-03-04 20:00:00+00:00,0.0
2024-03-05 14:00:00+00:00,0.0
2024-03-05 15:00:00+00:00,0.0
2024-03-05 16:00:00+00:00,0.0
2024-03-05 17:00:00+00:00,0.0
2024-03-05 18:00:00+00:00,0.0
2024-03-05 19:00:00+00:00,0.0
2024-03-05 20:00:00+00:00,0.0
2024-03-06 14:00:00+00:00,0.0
2024-03-06 15:00:00+00:00,0.0
2024-03-06 16:00:00+00:00,0.0
2024-03-06 17:00:00+00:00,0.0
2024-03-06 18:00:00+00:00,0.0
2024-03-06 19:00:00+00:00,0.0
2024-03-06 20:00:00+00:00,0.0
2024-03-07 14:00:00+00:00,0.0
2024-03-07 15:00:00+00:00,0.0
2024-03-07 16:00:00+00:00,0.0
2024-03-07 17:00:00+00:00,0.0
2024-03-07 18:00:00+00:00,0.0
2024-03-07 19:00:00+00:00,0.0
2024-03-07 20:00:00+00:00,0.0
2024-03-08 14:00:00+00:00,0.0
2024-03-08 15:00:00+00:00,0.0
2024-03-08 16:00:00+00:00,0.0
2024-03-08 17:00:00+00:00,0.0
2024-03-08 18:00:00+00:00,0.0
2024-03-08 19:00:00+00:00,0.0
2024-03-08 20:00:00+00:00,0.0
2024-03-11 13:00:00+00:00,0.0
2024-03-11 14:00:00+00:00,0.0
2024-03-11 15:00:00+00:00,0.0
2024-03-11 16:00:00+00:00,0.0
2024-03-11 17:00:00+00:00,0.0
2024-03-11 18:00:00+00:00,0.0
2024-03-11 19:00:00+00:00,0.0
2024-03-12 13:00:00+00:00,0.0
2024-03-12 14:00:00+00:00,0.0
2024-03-12 15:00:00+00:00,0.0
2024-03-12 16:00:00+00:00,0.0
2024-03-12 17:00:00+00:00,0.0
2024-03-12 18:00:00+00:00,0.0
2024-03-12 19:00:00+00:00,0.0
2024-03-13 13:00:00+00:00,0.0
2024-03-13 14:00:00+00:00,0.0
2024-03-13 15:00:00+00:00,0.0
2024-03-13 16:00:00+00:00,0.0
2024-03-13 17:00:00+00:00,0.0
2024-03-13 18:00:00+00:00,0.0
2024-03-13 19:00:00+00:00,0.0
2024-03-14 13:00:00+00:00,0.0
2024-03-14 14:00:00+00:00,0.0
2024-03-14 15:00:00+00:00,0.0
2024-03-14 16:00:00+00:00,0.0
2024-03-14 17:00:00+00:00,0.0
2024-03-14 18:00:00+00:00,0.0
2024-03-14 19:00:00+00:00,0.0
2024-03-15 13:00:00+00:00,0.0
2024-03-15 14:00:00+00:00,0.0
2024-03-15 15:00:00+00:00,0.0
2024-03-15 16:00:00+00:00,0.0
2024-03-15 17:00:00+00:00,0.0
2024-03-15 18:00:00+00:00,0.0
2024-03-15 19:00:00+00:00,0.0
2024-03-18 13:00:00+00:00,0.0
2024-03-18 14:00:00+00:00,0.0
2024-03-18 15:00:00+00:00,0.0
2024-03-18 16:00:00+00:00,0.0
2024-03-18 17:00:00+00:00,0.0
2024-03-18 18:00:00+00:00,0.0
2024-03-18 19:00:00+00:00,0.0
2024-03-19 13:00:00+00:00,0.0
2024-03-19 14:00:00+00:00,0.0
2024-03-19 15:00:00+00:00,0.0
2024-03-19 16:00:00+00:00,0.0
2024-03-19 17:00:00+00:00,0.0
2024-03-19 18:00:00+00:00,0.0
2024-03-19 19:00:00+00:00,0.0
2024-03-20 13:00:00+00:00,0.0
2024-03-20 14:00:00+00:00,0.0
2024-03-20 15:00:00+00:00,0.0
2024-03-20 16:00:00+00:00,0.0
2024-03-20 17:00:00+00:00,0.0
2024-03-20 18:00:00+00:00,0.0
2024-03-20 19:00:00+00:00,0.0
2024-03-21 13:00:00+00:00,0.0
2024-03-21 14:00:00+00:00,0.0
2024-03-21 15:00:00+00:00,0.0
2024-03-21 16:00:00+00:00,0.0
2024-03-21 17:00:00+00:00,0.0
2024-03-21 18:00:00+00:00,0.0
2024-03-21 19:00:00+00:00,0.0
2024-03-22 13:00:00+00:00,0.0
2024-03-22 14:00:00+00:00,0.0
2024-03-22 15:00:00+00:00,0.0
2024-03-22 16:00:00+00:00,0.0
2024-03-22 17:00:00+00:00,0.0
2024-03-22 18:00:00+00:00,0.0
2024-03-22 19:00:00+00:00,0.0
2024-03-25 13:00:00+00:00,0.0
2024-03-25 14:00:00+00:00,0.0
2024-03-25 15:00:00+00:00,0.0
2024-03-25 16:00:00+00:00,0.0
2024-03-25 17:00:00+00:00,0.0
2024-03-25 18:00:00+00:00,0.0
2024-03-25 19:00:00+00:00,0.0
2024-03-26 13:00:00+00:00,0.0
2024-03-26 14:00:00+00:00,0.0
2024-03-26 15:00:00+00:00,0.0
2024-03-26 16:00:00+00:00,0.0
2024-03-26 17:00:00+00:00,0.0
2024-03-26 18:00:00+00:00,0.0
2024-03-26 19:00:00+00:00,0.0
2024-03-27 13:00:00+00:00,0.0
2024-03-27 14:00:00+00:00,0.0
2024-03-27 15:00:00+00:00,0.0
2024-03-27 16:00:00+00:00,0.0
2024-03-27 17:00:00+00:00,0.0
2024-03-27 18:00:00+00:00,0.0
2024-03-27 19:00:00+00:00,0.0
2024-03-28 13:00:00+00:00,0.0
2024-03-28 14:00:00+00:00,0.0
2024-03-28 15:00:00+00:00,0.0
2024-03-28 16:00:00+00:00,0.0
2024-03-28 17:00:00+00:00,0.0
2024-03-28 18:00:00+00:00,0.0
2024-03-28 19:00:00+00:00,0.0
2024-04-01 13:00:00+00:00,0.0
2024-04-01 14:00:00+00:00,0.0
2024-04-01 15:00:00+00:00,0.0
2024-04-01 16:00:00+00:00,0.0
2024-04-01 17:00:00+00:00,0.0
2024-04-01 18:00:00+00:00,0.0
2024-04-01 19:00:00+00:00,0.0
2024-04-02 13:00:00+00:00,0.0
2024-04-02 14:00:00+00:00,0.0
2024-04-02 15:00:00+00:00,0.0
2024-04-02 16:00:00+00:00,0.0
2024-04-02 17:00:00+00:00,0.0
2024-04-02 18:00:00+00:00,0.0
2024-04-02 19:00:00+00:00,0.0
2024-04-03 13:00:00+00:00,0.0
2024-04-03 14:00:00+00:00,0.0
2024-04-03 15:00:00+00:00,0.0
2024-04-03 16:00:00+00:00,0.0
2024-04-03 17:00:00+00:00,0.0
2024-04-03 18:00:00+00:00,0.0
2024-04-03 19:00:00+00:00,0.0
2024-04-04 13:00:00+00:00,0.0
2024-04-04 14:00:00+00:00,0.0
2024-04-04 15:00:00+00:00,0.0
2024-04-04 16:00:00+00:00,0.0
2024-04-04 17:00:00+00:00,0.0
2024-04-04 18:00:00+00:00,0.0
2024-04-04 19:00:00+00:00,0.0
2024-04-05 13:00:00+00:00,0.0
2024-04-05 14:00:00+00:00,0.0
2024-04-05 15:00:00+00:00,0.0
2024-04-05 16:00:00+00:00,0.0
2024-04-05 17:00:00+00:00,0.0
2024-04-05 18:00:00+00:00,0.0
2024-04-05 19:00:00+00:00,0.0
2024-04-08 13:00:00+00:00,0.0
2024-04-08 14:00:00+00:00,0.0
2024-04-08 15:00:00+00:00,0.0
2024-04-08 16:00:00+00:00,0.0
2024-04-08 17:00:00+00:00,0.0
2024-04-08 18:00:00+00:00,0.0
2024-04-08 19:00:00+00:00,0.0
2024-04-09 13:00:00+00:00,0.0
2024-04-09 14:00:00+00:00,0.0
2024-04-09 15:00:00+00:00,0.0
2024-04-09 16:00:00+00:00,0.0
2024-04-09 17:00:00+00:00,0.0
2024-04-09 18:00:00+00:00,0.0
2024-04-09 19:00:00+00:00,0.0
2024-04-10 13:00:00+00:00,0.0
2024-04-10 14:00:00+00:00,0.0
2024-04-10 15:00:00+00:00,0.0
2024-04-10 16:00:00+00:00,0.0
2024-04-10 17:00:00+00:00,0.0
2024-04-10 18:00:00+00:00,0.0
2024-04-10 19:00:00+00:00,0.0
2024-04-11 13:00:00+00:00,0.0
2024-04-11 14:00:00+00:00,0.0
2024-04-11 15:00:00+00:00,0.0
2024-04-11 16:00:00+00:00,0.0
2024-04-11 17:00:00+00:00,0.0
2024-04-11 18:00:00+00:00,0.0
2024-04-11 19:00:00+00:00,0.0
2024-04-12 13:00:00+00:00,0.0
2024-04-12 14:00:00+00:00,0.0
2024-04-12 15:00:00+00:00,0.0
2024-04-12 16:00:00+00:00,0.0
2024-04-12 17:00:00+00:00,0.0
2024-04-12 18:00:00+00:00,0.0
2024-04-12 19:00:00+00:00,0.0
2024-04-15 13:00:00+00:00,0.0
2024-04-15 14:00:00+00:00,0.0
2024-04-15 15:00:00+00:00,0.0
2024-04-15 16:00:00+00:00,0.0
2024-04-15 17:00:00+00:00,0.0
2024-04-15 18:00:00+00:00,0.0
2024-04-15 19:00:00+00:00,0.0
2024-04-16 13:00:00+00:00,0.0
2024-04-16 14:00:00+00:00,0.0
2024-04-16 15:00:00+00:00,0.0
2024-04-16 16:00:00+00:00,0.0
2024-04-16 17:00:00+00:00,0.0
2024-04-16 18:00:00+00:00,0.0
2024-04-16 19:00:00+00:00,0.0
2024-04-17 13:00:00+00:00,0.0
2024-04-17 14:00:00+00:00,0.0
2024-04-17 15:00:00+00:00,0.0
2024-04-17 16:00:00+00:00,0.0
2024-04-17 17:00:00+00:00,0.0
2024-04-17 18:00:00+00:00,0.0
2024-04-17 19:00:00+00:00,0.0
2024-04-18 13:00:00+00:00,0.0
2024-04-18 14:00:00+00:00,0.0
2024-04-18 15:00:00+00:00,0.0
2024-04-18 16:00:00+00:00,0.0
2024-04-18 17:00:00+00:00,0.0
2024-04-18 18:00:00+00:00,0.0
2024-04-18 19:00:00+00:00,0.0
2024-04-19 13:00:00+00:00,0.0
2024-04-19 14:00:00+00:00,0.0
2024-04-19 15:00:00+00:00,0.0
2024-04-19 16:00:00+00:00,0.0
2024-04-19 17:00:00+00:00,0.0
2024-04-19 18:00:00+00:00,0.0
2024-04-19 19:00:00+00:00,0.0
2024-04-22 13:00:00+00:00,0.0
2024-04-22 14:00:00+00:00,0.0
2024-04-22 15:00:00+00:00,0.0
2024-04-22 16:00:00+00:00,0.0
2024-04-22 17:00:00+00:00,0.0
2024-04-22 18:00:00+00:00,0.0
2024-04-22 19:00:00+00:00,0.0
2024-04-23 13:00:00+00:00,0.0
2024-04-23 14:00:00+00:00,0.0
2024-04-23 15:00:00+00:00,0.0
2024-04-23 16:00:00+00:00,0.0
2024-04-23 17:00:00+00:00,0.0
2024-04-23 18:00:00+00:00,0.0
2024-04-23 19:00:00+00:00,0.0
2024-04-24 13:00:00+00:00,0.0
2024-04-24 14:00:00+00:00,0.0
2024-04-24 15:00:00+00:00,0.0
2024-04-24 16:00:00+00:00,0.0
2024-04-24 17:00:00+00:00,0.0
2024-04-24 18:00:00+00:00,0.0
2024-04-24 19:00:00+00:00,0.0
2024-04-25 13:00:00+00:00,0.0
2024-04-25 14:00:00+00:00,0.0
2024-04-25 15:00:00+00:00,0.0
2024-04-25 16:00:00+00:00,0.0
2024-04-25 17:00:00+00:00,0.0
2024-04-25 18:00:00+00:00,0.0
2024-04-25 19:00:00+00:00,0.0
2024-04-26 13:00:00+00:00,0.0
2024-04-26 14:00:00+00:00,0.0
2024-04-26 15:00:00+00:00,0.0
2024-04-26 16:00:00+00:00,0.0
2024-04-26 17:00:00+00:00,0.0
2024-04-26 18:00:00+00:00,0.0
2024-04-26 19:00:00+00:00,0.0
2024-04-29 13:00:00+00:00,0.0
2024-04-29 14:00:00+00:00,0.0
2024-04-29 15:00:00+00:00,0.0
2024-04-29 16:00:00+00:00,0.0
2024-04-29 17:00:00+00:00,0.0
2024-04-29 18:00:00+00:00,0.0
2024-04-29 19:00:00+00:00,0.0
2024-04-30 13:00:00+00:00,0.0
2024-04-30 14:00:00+00:00,0.0
2024-04-30 15:00:00+00:00,0.0
2024-04-30 16:00:00+00:00,0.0
2024-04-30 17:00:00+00:00,0.0
2024-04-30 18:00:00+00:00,0.0
2024-04-30 19:00:00+00:00,0.0
2024-05-01 13:00:00+00:00,0.0
2024-05-01 14:00:00+00:00,0.0
2024-05-01 15:00:00+00:00,0.0
2024-05-01 16:00:00+00:00,0.0
2024-05-01 17:00:00+00:00,0.0
2024-05-01 18:00:00+00:00,0.0
2024-05-01 19:00:00+00:00,0.0
2024-05-02 13:00:00+00:00,0.0
2024-05-02 14:00:00+00:00,0.0
2024-05-02 15:00:00+00:00,0.0
2024-05-02 16:00:00+00:00,0.0
2024-05-02 17:00:00+00:00,0.0
2024-05-02 18:00:00+00:00,0.0
2024-05-02 19:00:00+00:00,0.0
2024-05-03 13:00:00+00:00,0.0
2024-05-03 14:00:00+00:00,0.0
2024-05-03 15:00:00+00:00,0.0
2024-05-03 16:00:00+00:00,0.0
2024-05-03 17:00:00+00:00,0.0
2024-05-03 18:00:00+00:00,0.0
2024-05-03 19:00:00+00:00,0.0
2024-05-06 13:00:00+00:00,0.0
2024-05-06 14:00:00+00:00,0.0
2024-05-06 15:00:00+00:00,0.0
2024-05-06 16:00:00+00:00,0.0
2024-05-06 17:00:00+00:00,0.0
2024-05-06 18:00:00+00:00,0.0
2024-05-06 19:00:00+00:00,0.0
2024-05-07 13:00:00+00:00,0.0
2024-05-07 14:00:00+00:00,0.0
2024-05-07 15:00:00+00:00,0.0
2024-05-07 16:00:00+00:00,0.0
2024-05-07 17:00:00+00:00,0.0
2024-05-07 18:00:00+00:00,0.0
2024-05-07 19:00:00+00:00,0.0
2024-05-08 13:00:00+00:00,0.0
2024-05-08 14:00:00+00:00,0.0
2024-05-08 15:00:00+00:00,0.0
2024-05-08 16:00:00+00:00,0.0
2024-05-08 17:00:00+00:00,0.0
2024-05-08 18:00:00+00:00,0.0
2024-05-08 19:00:00+00:00,0.0
2024-05-09 13:00:00+00:00,0.0
2024-05-09 14:00:00+00:00,0.0
2024-05-09 15:00:00+00:00,0.0
2024-05-09 16:00:00+00:00,0.0
2024-05-09 17:00:00+00:00,0.0
2024-05-09 18:00:00+00:00,0.0
2024-05-09 19:00:00+00:00,0.0
2024-05-10 13:00:00+00:00,0.0
2024-05-10 14:00:00+00:00,0.0
2024-05-10 15:00:00+00:00,0.0
2024-05-10 16:00:00+00:00,0.0
2024-05-10 17:00:00+00:00,0.0
2024-05-10 18:00:00+00:00,0.0
2024-05-10 19:00:00+00:00,0.0
2024-05-13 13:00:00+00:00,0.0
2024-05-13 14:00:00+00:00,0.0
2024-05-13 15:00:00+00:00,0.0
2024-05-13 16:00:00+00:00,0.0
2024-05-13 17:00:00+00:00,0.0
2024-05-13 18:00:00+00:00,0.0
2024-05-13 19:00:00+00:00,0.0
2024-05-14 13:00:00+00:00,0.0
2024-05-14 14:00:00+00:00,0.0
2024-05-14 15:00:00+00:00,0.0
2024-05-14 16:00:00+00:00,0.0
2024-05-14 17:00:00+00:00,0.0
2024-05-14 18:00:00+00:00,0.0
2024-05-14 19:00:00+00:00,0.0
2024-05-15 13:00:00+00:00,0.0
2024-05-15 14:00:00+00:00,0.0
2024-05-15 15:00:00+00:00,0.0
2024-05-15 16:00:00+00:00,0.0
2024-05-15 17:00:00+00:00,0.0
2024-05-15 18:00:00+00:00,0.0
2024-05-15 19:00:00+00:00,0.0
2024-05-16 13:00:00+00:00,0.0
2024-05-16 14:00:00+00:00,0.0
2024-05-16 15:00:00+00:00,0.0
2024-05-16 16:00:00+00:00,0.0
2024-05-16 17:00:00+00:00,0.0
2024-05-16 18:00:00+00:00,0.0
2024-05-16 19:00:00+00:00,0.0
2024-05-17 13:00:00+00:00,0.0
2024-05-17 14:00:00+00:00,0.0
2024-05-17 15:00:00+00:00,0.0
2024-05-17 16:00:00+00:00,0.0
2024-05-17 17:00:00+00:00,0.0
2024-05-17 18:00:00+00:00,0.0
2024-05-17 19:00:00+00:00,0.0
2024-05-20 13:00:00+00:00,0.0
2024-05-20 14:00:00+00:00,0.0
2024-05-20 15:00:00+00:00,0.0
2024-05-20 16:00:00+00:00,0.0
2024-05-20 17:00:00+00:00,0.0
2024-05-20 18:00:00+00:00,0.0
2024-05-20 19:00:00+00:00,0.0
2024-05-21 13:00:00+00:00,0.0
2024-05-21 14:00:00+00:00,0.0
2024-05-21 15:00:00+00:00,0.0
2024-05-21 16:00:00+00:00,0.0
2024-05-21 17:00:00+00:00,0.0
2024-05-21 18:00:00+00:00,0.0
2024-05-21 19:00:00+00:00,0.0
2024-05-22 13:00:00+00:00,0.0
2024-05-22 14:00:00+00:00,0.0
2024-05-22 15:00:00+00:00,0.0
2024-05-22 16:00:00+00:00,0.0
2024-05-22 17:00:00+00:00,0.0
2024-05-22 18:00:00+00:00,0.0
2024-05-22 19:00:00+00:00,0.0
2024-05-23 13:00:00+00:00,0.0
2024-05-23 14:00:00+00:00,0.0
2024-05-23 15:00:00+00:00,0.0
2024-05-23 16:00:00+00:00,0.0
2024-05-23 17:00:00+00:00,0.0
2024-05-23 18:00:00+00:00,0.0
2024-05-23 19:00:00+00:00,0.0
2024-05-24 13:00:00+00:00,0.0
2024-05-24 14:00:00+00:00,0.0
2024-05-24 15:00:00+00:00,0.0
2024-05-24 16:00:00+00:00,0.0
2024-05-24 17:00:00+00:00,0.0
2024-05-24 18:00:00+00:00,0.0
2024-05-24 19:00:00+00:00,0.0
2024-05-28 13:00:00+00:00,0.0
2024-05-28 14:00:00+00:00,0.0
2024-05-28 15:00:00+00:00,0.0
2024-05-28 16:00:00+00:00,0.0
2024-05-28 17:00:00+00:00,0.0
2024-05-28 18:00:00+00:00,0.0
2024-05-28 19:00:00+00:00,0.0
2024-05-29 13:00:00+00:00,0.0
2024-05-29 14:00:00+00:00,0.0
2024-05-29 15:00:00+00:00,0.0
2024-05-29 16:00:00+00:00,0.0
2024-05-29 17:00:00+00:00,0.0
2024-05-29 18:00:00+00:00,0.0
2024-05-29 19:00:00+00:00,0.0
2024-05-30 13:00:00+00:00,0.0
2024-05-30 14:00:00+00:00,0.0
2024-05-30 15:00:00+00:00,0.0
2024-05-30 16:00:00+00:00,0.0
2024-05-30 17:00:00+00:00,0.0
2024-05-30 18:00:00+00:00,0.0
2024-05-30 19:00:00+00:00,0.0
2024-05-31 13:00:00+00:00,0.0
2024-05-31 14:00:00+00:00,0.0
2024-05-31 15:00:00+00:00,0.0
2024-05-31 16:00:00+00:00,0.0
2024-05-31 17:00:00+00:00,0.0
2024-05-31 18:00:00+00:00,0.0
2024-05-31 19:00:00+00:00,0.0
2024-06-03 13:00:00+00:00,0.0
2024-06-03 14:00:00+00:00,0.0
2024-06-03 15:00:00+00:00,0.0
2024-06-03 16:00:00+00:00,0.0
2024-06-03 17:00:00+00:00,0.0
2024-06-03 18:00:00+00:00,0.0
2024-06-03 19:00:00+00:00,0.0
2024-06-04 13:00:00+00:00,0.0
2024-06-04 14:00:00+00:00,0.0
2024-06-04 15:00:00+00:00,0.0
2024-06-04 16:00:00+00:00,0.0
2024-06-04 17:00:00+00:00,0.0
2024-06-04 18:00:00+00:00,0.0
2024-06-04 19:00:00+00:00,0.0
2024-06-05 13:00:00+00:00,0.0
2024-06-05 14:00:00+00:00,0.0
2024-06-05 15:00:00+00:00,0.0
2024-06-05 16:00:00+00:00,0.0
2024-06-05 17:00:00+00:00,0.0
2024-06-05 18:00:00+00:00,0.0
2024-06-05 19:00:00+00:00,0.0
2024-06-06 13:00:00+00:00,0.0
2024-06-06 14:00:00+00:00,0.0
2024-06-06 15:00:00+00:00,0.0
2024-06-06 16:00:00+00:00,0.0
2024-06-06 17:00:00+00:00,0.0
2024-06-06 18:00:00+00:00,0.0
2024-06-06 19:00:00+00:00,0.0
2024-06-07 13:00:00+00:00,0.0
2024-06-07 14:00:00+00:00,0.0
2024-06-07 15:00:00+00:00,0.0
2024-06-07 16:00:00+00:00,0.0
2024-06-07 17:00:00+00:00,0.0
2024-06-07 18:00:00+00:00,0.0
2024-06-07 19:00:00+00:00,0.0
2024-06-10 13:00:00+00:00,0.0
2024-06-10 14:00:00+00:00,0.0
2024-06-10 15:00:00+00:00,0.0
2024-06-10 16:00:00+00:00,0.0
2024-06-10 17:00:00+00:00,0.0
2024-06-10 18:00:00+00:00,0.0
2024-06-10 19:00:00+00:00,0.0
2024-06-11 13:00:00+00:00,0.0
2024-06-11 14:00:00+00:00,0.0
2024-06-11 15:00:00+00:00,0.0
2024-06-11 16:00:00+00:00,0.0
2024-06-11 17:00:00+00:00,0.0
2024-06-11 18:00:00+00:00,0.0
2024-06-11 19:00:00+00:00,0.0
2024-06-12 13:00:00+00:00,0.0
2024-06-12 14:00:00+00:00,0.0
2024-06-12 15:00:00+00:00,0.0
2024-06-12 16:00:00+00:00,0.0
2024-06-12 17:00:00+00:00,0.0
2024-06-12 18:00:00+00:00,0.0
2024-06-12 19:00:00+00:00,0.0
2024-06-13 13:00:00+00:00,0.0
2024-06-13 14:00:00+00:00,0.0
2024-06-13 15:00:00+00:00,0.0
2024-06-13 16:00:00+00:00,0.0
2024-06-13 17:00:00+00:00,0.0
2024-06-13 18:00:00+00:00,0.0
2024-06-13 19:00:00+00:00,0.0
2024-06-14 13:00:00+00:00,0.0
2024-06-14 14:00:00+00:00,0.0
2024-06-14 15:00:00+00:00,0.0
2024-06-14 16:00:00+00:00,0.0
2024-06-14 17:00:00+00:00,0.0
2024-06-14 18:00:00+00:00,0.0
2024-06-14 19:00:00+00:00,0.0
2024-06-17 13:00:00+00:00,0.0
2024-06-17 14:00:00+00:00,0.0
2024-06-17 15:00:00+00:00,0.0
2024-06-17 16:00:00+00:00,0.0
2024-06-17 17:00:00+00:00,0.0
2024-06-17 18:00:00+00:00,0.0
2024-06-17 19:00:00+00:00,0.0
2024-06-18 13:00:00+00:00,0.0
2024-06-18 14:00:00+00:00,0.0
2024-06-18 15:00:00+00:00,0.0
2024-06-18 16:00:00+00:00,0.0
2024-06-18 17:00:00+00:00,0.0
2024-06-18 18:00:00+00:00,0.0
2024-06-18 19:00:00+00:00,0.0
2024-06-20 13:00:00+00:00,0.0
2024-06-20 14:00:00+00:00,0.0
2024-06-20 15:00:00+00:00,0.0
2024-06-20 16:00:00+00:00,0.0
2024-06-20 17:00:00+00:00,0.0
2024-06-20 18:00:00+00:00,0.0
2024-06-20 19:00:00+00:00,0.0
2024-06-21 13:00:00+00:00,0.0
2024-06-21 14:00:00+00:00,0.0
2024-06-21 15:00:00+00:00,0.0
2024-06-21 16:00:00+00:00,0.0
2024-06-21 17:00:00+00:00,0.0
2024-06-21 18:00:00+00:00,0.0
2024-06-21 19:00:00+00:00,0.0
2024-06-24 13:00:00+00:00,0.0
2024-06-24 14:00:00+00:00,0.0
2024-06-24 15:00:00+00:00,0.0
2024-06-24 16:00:00+00:00,0.0
2024-06-24 17:00:00+00:00,0.0
2024-06-24 18:00:00+00:00,0.0
2024-06-24 19:00:00+00:00,0.0
2024-06-25 13:00:00+00:00,0.0
2024-06-25 14:00:00+00:00,0.0
2024-06-25 15:00:00+00:00,0.0
2024-06-25 16:00:00+00:00,0.0
2024-06-25 17:00:00+00:00,0.0
2024-06-25 18:00:00+00:00,0.0
2024-06-25 19:00:00+00:00,0.0
2024-06-26 13:00:00+00:00,0.0
2024-06-26 14:00:00+00:00,0.0
2024-06-26 15:00:00+00:00,0.0
2024-06-26 16:00:00+00:00,0.0
2024-06-26 17:00:00+00:00,0.0
2024-06-26 18:00:00+00:00,0.0
2024-06-26 19:00:00+00:00,0.0
2024-06-27 13:00:00+00:00,0.0
2024-06-27 14:00:00+00:00,0.0
2024-06-27 15:00:00+00:00,0.0
2024-06-27 16:00:00+00:00,0.0
2024-06-27 17:00:00+00:00,0.0
2024-06-27 18:00:00+00:00,0.0
2024-06-27 19:00:00+00:00,0.0
2024-06-28 13:00:00+00:00,0.0
2024-06-28 14:00:00+00:00,0.0
2024-06-28 15:00:00+00:00,0.0
2024-06-28 16:00:00+00:00,0.0
2024-06-28 17:00:00+00:00,0.0
2024-06-28 18:00:00+00:00,0.0
2024-06-28 19:00:00+00:00,0.0
2024-07-01 13:00:00+00:00,0.0
2024-07-01 14:00:00+00:00,0.0
2024-07-01 15:00:00+00:00,0.0
2024-07-01 16:00:00+00:00,0.0
2024-07-01 17:00:00+00:00,0.0
2024-07-01 18:00:00+00:00,0.0
2024-07-01 19:00:00+00:00,0.0
2024-07-02 13:00:00+00:00,0.0
2024-07-02 14:00:00+00:00,0.0
2024-07-02 15:00:00+00:00,0.0
2024-07-02 16:00:00+00:00,0.0
2024-07-02 17:00:00+00:00,0.0
2024-07-02 18:00:00+00:00,0.0
2024-07-02 19:00:00+00:00,0.0
2024-07-03 13:00:00+00:00,0.0
2024-07-03 14:00:00+00:00,0.0
2024-07-03 15:00:00+00:00,0.0
2024-07-05 13:00:00+00:00,0.0
2024-07-05 14:00:00+00:00,0.0
2024-07-05 15:00:00+00:00,0.0
2024-07-05 16:00:00+00:00,0.0
2024-07-05 17:00:00+00:00,0.0
2024-07-05 18:00:00+00:00,0.0
2024-07-05 19:00:00+00:00,0.0
2024-07-08 13:00:00+00:00,0.0
2024-07-08 14:00:00+00:00,0.0
2024-07-08 15:00:00+00:00,0.0
2024-07-08 16:00:00+00:00,0.0
2024-07-08 17:00:00+00:00,0.0
2024-07-08 18:00:00+00:00,0.0
2024-07-08 19:00:00+00:00,0.0
2024-07-09 13:00:00+00:00,0.0
2024-07-09 14:00:00+00:00,0.0
2024-07-09 15:00:00+00:00,0.0
2024-07-09 16:00:00+00:00,0.0
2024-07-09 17:00:00+00:00,0.0
2024-07-09 18:00:00+00:00,0.0
2024-07-09 19:00:00+00:00,0.0
2024-07-10 13:00:00+00:00,0.0
2024-07-10 14:00:00+00:00,0.0
2024-07-10 15:00:00+00:00,0.0
2024-07-10 16:00:00+00:00,0.0
2024-07-10 17:00:00+00:00,0.0
2024-07-10 18:00:00+00:00,0.0
2024-07-10 19:00:00+00:00,0.0
2024-07-11 13:00:00+00:00,0.0
2024-07-11 14:00:00+00:00,0.0
2024-07-11 15:00:00+00:00,0.0
2024-07-11 16:00:00+00:00,0.0
2024-07-11 17:00:00+00:00,0.0
2024-07-11 18:00:00+00:00,0.0
2024-07-11 19:00:00+00:00,0.0
2024-07-12 13:00:00+00:00,0.0
2024-07-12 14:00:00+00:00,0.0
2024-07-12 15:00:00+00:00,0.0
2024-07-12 16:00:00+00:00,0.0
2024-07-12 17:00:00+00:00,0.0
2024-07-12 18:00:00+00:00,0.0
2024-07-12 19:00:00+00:00,0.0
2024-07-15 13:00:00+00:00,0.0
2024-07-15 14:00:00+00:00,0.0
2024-07-15 15:00:00+00:00,0.0
2024-07-15 16:00:00+00:00,0.0
2024-07-15 17:00:00+00:00,0.0
2024-07-15 18:00:00+00:00,0.0
2024-07-15 19:00:00+00:00,0.0
2024-07-16 13:00:00+00:00,0.0
2024-07-16 14:00:00+00:00,0.0
2024-07-16 15:00:00+00:00,0.0
2024-07-16 16:00:00+00:00,0.0
2024-07-16 17:00:00+00:00,0.0
2024-07-16 18:00:00+00:00,0.0
2024-07-16 19:00:00+00:00,0.0
2024-07-17 13:00:00+00:00,0.0
2024-07-17 14:00:00+00:00,0.0
2024-07-17 15:00:00+00:00,0.0
2024-07-17 16:00:00+00:00,0.0
2024-07-17 17:00:00+00:00,0.0
2024-07-17 18:00:00+00:00,0.0
2024-07-17 19:00:00+00:00,0.0
2024-07-18 13:00:00+00:00,0.0
2024-07-18 14:00:00+00:00,0.0
2024-07-18 15:00:00+00:00,0.0
2024-07-18 16:00:00+00:00,0.0
2024-07-18 17:00:00+00:00,0.0
2024-07-18 18:00:00+00:00,0.0
2024-07-18 19:00:00+00:00,0.0
2024-07-19 13:00:00+00:00,0.0
2024-07-19 14:00:00+00:00,0.0
2024-07-19 15:00:00+00:00,0.0
2024-07-19 16:00:00+00:00,0.0
2024-07-19 17:00:00+00:00,0.0
2024-07-19 18:00:00+00:00,0.0
2024-07-19 19:00:00+00:00,0.0
2024-07-22 13:00:00+00:00,0.0
2024-07-22 14:00:00+00:00,0.0
2024-07-22 15:00:00+00:00,0.0
2024-07-22 16:00:00+00:00,0.0
2024-07-22 17:00:00+00:00,0.0
2024-07-22 18:00:00+00:00,0.0
2024-07-22 19:00:00+00:00,0.0
2024-07-23 13:00:00+00:00,0.0
2024-07-23 14:00:00+00:00,0.0
2024-07-23 15:00:00+00:00,0.0
2024-07-23 16:00:00+00:00,0.0
2024-07-23 17:00:00+00:00,0.0
2024-07-23 18:00:00+00:00,0.0
2024-07-23 19:00:00+00:00,0.0
2024-07-24 13:00:00+00:00,0.0
2024-07-24 14:00:00+00:00,0.0
2024-07-24 15:00:00+00:00,0.0
2024-07-24 16:00:00+00:00,0.0
2024-07-24 17:00:00+00:00,0.0
2024-07-24 18:00:00+00:00,0.0
2024-07-24 19:00:00+00:00,0.0
2024-07-25 13:00:00+00:00,0.0
2024-07-25 14:00:00+00:00,0.0
2024-07-25 15:00:00+00:00,0.0
2024-07-25 16:00:00+00:00,0.0
2024-07-25 17:00:00+00:00,0.0
2024-07-25 18:00:00+00:00,0.0
2024-07-25 19:00:00+00:00,0.0
2024-07-26 13:00:00+00:00,0.0
2024-07-26 14:00:00+00:00,0.0
2024-07-26 15:00:00+00:00,0.0
2024-07-26 16:00:00+00:00,0.0
2024-07-26 17:00:00+00:00,0.0
2024-07-26 18:00:00+00:00,0.0
2024-07-26 19:00:00+00:00,0.0
2024-07-29 13:00:00+00:00,0.0
2024-07-29 14:00:00+00:00,0.0
2024-07-29 15:00:00+00:00,0.0
2024-07-29 16:00:00+00:00,0.0
2024-07-29 17:00:00+00:00,0.0
2024-07-29 18:00:00+00:00,0.0
2024-07-29 19:00:00+00:00,0.0
2024-07-30 13:00:00+00:00,0.0
2024-07-30 14:00:00+00:00,0.0
2024-07-30 15:00:00+00:00,0.0
2024-07-30 16:00:00+00:00,0.0
2024-07-30 17:00:00+00:00,0.0
2024-07-30 18:00:00+00:00,0.0
2024-07-30 19:00:00+00:00,0.0
2024-07-31 13:00:00+00:00,0.0
2024-07-31 14:00:00+00:00,0.0
2024-07-31 15:00:00+00:00,0.0
2024-07-31 16:00:00+00:00,0.0
2024-07-31 17:00:00+00:00,0.0
2024-07-31 18:00:00+00:00,0.0
2024-07-31 19:00:00+00:00,0.0
2024-08-01 13:00:00+00:00,0.0
2024-08-01 14:00:00+00:00,0.0
2024-08-01 15:00:00+00:00,0.0
2024-08-01 16:00:00+00:00,0.0
2024-08-01 17:00:00+00:00,0.0
2024-08-01 18:00:00+00:00,0.0
2024-08-01 19:00:00+00:00,0.0
2024-08-02 13:00:00+00:00,-153.09723697338165
2024-08-02 14:00:00+00:00,-184.40188929893372
2024-08-02 15:00:00+00:00,-162.11386127660595
2024-08-02 16:00:00+00:00,-174.02516167608718
2024-08-02 17:00:00+00:00,-142.77053616836395
2024-08-02 18:00:00+00:00,-147.68953592790513
2024-08-02 19:00:00+00:00,-179.18579296544786
2024-08-05 13:00:00+00:00,-348.68975072018293
2024-08-05 14:00:00+00:00,-374.89397028039986
2024-08-05 15:00:00+00:00,-360.9519902810059
2024-08-05 16:00:00+00:00,-359.9766759567667
2024-08-05 17:00:00+00:00,-331.3282771501957
2024-08-05 18:00:00+00:00,-352.5272568285919
2024-08-05 19:00:00+00:00,-358.75479907553733
2024-08-06 13:00:00+00:00,-372.2196839483688
2024-08-06 14:00:00+00:00,-403.91331638414783
2024-08-06 15:00:00+00:00,-402.76408598432556
2024-08-06 16:00:00+00:00,-382.46577863718386
2024-08-06 17:00:00+00:00,-405.1708520643981
2024-08-06 18:00:00+00:00,-397.01156384415424
2024-08-06 19:00:00+00:00,-404.7604994020423
2024-08-07 13:00:00+00:00,-386.9578673100578
2024-08-07 14:00:00+00:00,-373.4371864808343
2024-08-07 15:00:00+00:00,-389.64927242893253
2024-08-07 16:00:00+00:00,-420.6273054456437
2024-08-07 17:00:00+00:00,-429.72835353542735
2024-08-07 18:00:00+00:00,-436.7347487345816
2024-08-07 19:00:00+00:00,-460.4859930672542
2024-08-08 13:00:00+00:00,-445.1263403597933
2024-08-08 14:00:00+00:00,-455.63767798206914
2024-08-08 15:00:00+00:00,-462.74354001881545
2024-08-08 16:00:00+00:00,-463.20025905070946
2024-08-08 17:00:00+00:00,-448.87922038293283
2024-08-08 18:00:00+00:00,-458.73036569722353
2024-08-08 19:00:00+00:00,-462.5117991493562
2024-08-09 13:00:00+00:00,-469.4240063421725
2024-08-09 14:00:00+00:00,-433.2913135641025
2024-08-09 15:00:00+00:00,-416.51714461969175
2024-08-09 16:00:00+00:00,-407.9315837064173
2024-08-09 17:00:00+00:00,-419.7306266479218
2024-08-09 18:00:00+00:00,-417.57779675669656
2024-08-09 19:00:00+00:00,-431.2929551971084
2024-08-12 13:00:00+00:00,-472.690083376324
2024-08-12 14:00:00+00:00,-474.9691323532355
2024-08-12 15:00:00+00:00,-477.8928988101198
2024-08-12 16:00:00+00:00,-494.69074912266603
2024-08-12 17:00:00+00:00,-491.0752940651123
2024-08-12 18:00:00+00:00,-497.1815050673453
2024-08-12 19:00:00+00:00,-493.18449815178155
2024-08-13 13:00:00+00:00,-499.6182091631556
2024-08-13 14:00:00+00:00,-478.44027112462066
2024-08-13 15:00:00+00:00,-483.67407738896804
2024-08-13 16:00:00+00:00,-476.62346464395
2024-08-13 17:00:00+00:00,-472.68521071817753
2024-08-13 18:00:00+00:00,-475.87844454927534
2024-08-13 19:00:00+00:00,-467.50914753247605
2024-08-14 13:00:00+00:00,-478.64546969547655
2024-08-14 14:00:00+00:00,-478.68249597143426
2024-08-14 15:00:00+00:00,-480.00410795208387
2024-08-14 16:00:00+00:00,-464.48014727241366
2024-08-14 17:00:00+00:00,-458.7848800765539
2024-08-14 18:00:00+00:00,-437.72807428884965
2024-08-14 19:00:00+00:00,-448.9397333510918
2024-08-15 13:00:00+00:00,-413.56320085176185
2024-08-15 14:00:00+00:00,-376.01943494351366
2024-08-15 15:00:00+00:00,-370.44242379445893
2024-08-15 16:00:00+00:00,-370.6865664389952
2024-08-15 17:00:00+00:00,-374.062364240538
2024-08-15 18:00:00+00:00,-391.07009101542303
2024-08-15 19:00:00+00:00,-393.7848737417215
2024-08-16 13:00:00+00:00,-373.0937213643755
2024-08-16 14:00:00+00:00,-365.0330772144637
2024-08-16 15:00:00+00:00,-390.8200609490827
2024-08-16 16:00:00+00:00,-378.86946388990305
2024-08-16 17:00:00+00:00,-377.16955807508975
2024-08-16 18:00:00+00:00,-379.8694007600398
2024-08-16 19:00:00+00:00,-371.2238150129403
2024-08-19 13:00:00+00:00,-416.1961801310146
2024-08-19 14:00:00+00:00,-403.37723795786314
2024-08-19 15:00:00+00:00,-415.90197917114233
2024-08-19 16:00:00+00:00,-431.1305115262613
2024-08-19 17:00:00+00:00,-416.0085238759133
2024-08-19 18:00:00+00:00,-400.5488417953526
2024-08-19 19:00:00+00:00,-396.3584116591006
2024-08-20 13:00:00+00:00,-388.4125181567933
2024-08-20 14:00:00+00:00,-402.13080600749475
2024-08-20 15:00:00+00:00,-399.8291165085347
2024-08-20 16:00:00+00:00,-380.8854599595607
2024-08-20 17:00:00+00:00,-384.66343308913616
2024-08-20 18:00:00+00:00,-394.3117955603791
2024-08-20 19:00:00+00:00,-413.4552627641773
2024-08-21 13:00:00+00:00,-378.4893801555519
2024-08-21 14:00:00+00:00,-372.70381919786246
2024-08-21 15:00:00+00:00,-386.6961591003291
2024-08-21 16:00:00+00:00,-405.4708943910322
2024-08-21 17:00:00+00:00,-392.31231066541403
2024-08-21 18:00:00+00:00,-372.9279001918634
2024-08-21 19:00:00+00:00,-380.3170746137074
2024-08-22 13:00:00+00:00,-395.14852392545004
2024-08-22 14:00:00+00:00,-382.18233835455123
2024-08-22 15:00:00+00:00,-368.87020733396247
2024-08-22 16:00:00+00:00,-381.2953812739769
2024-08-22 17:00:00+00:00,-382.98997635899417
2024-08-22 18:00:00+00:00,-373.4443094246572
2024-08-22 19:00:00+00:00,-363.6046438291585
2024-08-23 13:00:00+00:00,-323.69764271575616
2024-08-23 14:00:00+00:00,-321.5563218678534
2024-08-23 15:00:00+00:00,-334.40830285852263
2024-08-23 16:00:00+00:00,-315.95124542414027
2024-08-23 17:00:00+00:00,-326.3533096546624
2024-08-23 18:00:00+00:00,-322.3982260544935
2024-08-23 19:00:00+00:00,-326.1736609177971
2024-08-26 13:00:00+00:00,-326.22235039849977
2024-08-26 14:00:00+00:00,-362.4774808511879
2024-08-26 15:00:00+00:00,-385.8919528099325
2024-08-26 16:00:00+00:00,-368.8784547235088
2024-08-26 17:00:00+00:00,-376.1984513338304
2024-08-26 18:00:00+00:00,-366.5079762583333
2024-08-26 19:00:00+00:00,-368.4125827139171
2024-08-27 13:00:00+00:00,-389.66251343940274
2024-08-27 14:00:00+00:00,-392.3964200078398
2024-08-27 15:00:00+00:00,-390.095710498205
2024-08-27 16:00:00+00:00,-402.7872463543943
2024-08-27 17:00:00+00:00,-402.1503308171234
2024-08-27 18:00:00+00:00,-401.16023247721233
2024-08-27 19:00:00+00:00,-398.2434896751256
2024-08-28 13:00:00+00:00,-424.5906244666309
2024-08-28 14:00:00+00:00,-431.2261834083705
2024-08-28 15:00:00+00:00,-458.6599312872194
2024-08-28 16:00:00+00:00,-450.5926816523495
2024-08-28 17:00:00+00:00,-448.69081576174756
2024-08-28 18:00:00+00:00,-436.291068414447
2024-08-28 19:00:00+00:00,-445.73678037685875
2024-08-29 13:00:00+00:00,-439.6226492674157
2024-08-29 14:00:00+00:00,-419.7592995547329
2024-08-29 15:00:00+00:00,-407.6245168653203
2024-08-29 16:00:00+00:00,-399.31954509996194
2024-08-29 17:00:00+00:00,-402.3027701345043
2024-08-29 18:00:00+00:00,-397.1457358613032
2024-08-29 19:00:00+00:00,-413.6148251161102
2024-08-30 13:00:00+00:00,-400.18518641480136
2024-08-30 14:00:00+00:00,-397.0711712241622
2024-08-30 15:00:00+00:00,-417.19119769067345
2024-08-30 16:00:00+00:00,-414.9126835004267
2024-08-30 17:00:00+00:00,-406.00139601006475
2024-08-30 18:00:00+00:00,-409.15659802801395
2024-08-30 19:00:00+00:00,-363.50914563724973
2024-09-03 13:00:00+00:00,-411.2391793398111
2024-09-03 14:00:00+00:00,-390.1059914608272
2024-09-03 15:00:00+00:00,-379.8765523123725
2024-09-03 16:00:00+00:00,-375.4224217674942
2024-09-03 17:00:00+00:00,-381.70365562651057
2024-09-03 18:00:00+00:00,-385.5866602605544
2024-09-03 19:00:00+00:00,-371.5139480381042
2024-09-04 13:00:00+00:00,-404.4159099305883
2024-09-04 14:00:00+00:00,-420.1995737646927
2024-09-04 15:00:00+00:00,-429.20584270412013
2024-09-04 16:00:00+00:00,-463.89269601746304
2024-09-04 17:00:00+00:00,-464.7891145834335
2024-09-04 18:00:00+00:00,-463.98127428028084
2024-09-04 19:00:00+00:00,-468.96114435578056
2024-09-05 13:00:00+00:00,-468.996968217635
2024-09-05 14:00:00+00:00,-482.1635561846651
2024-09-05 15:00:00+00:00,-485.9879949728042
2024-09-05 16:00:00+00:00,-492.1430694083169
2024-09-05 17:00:00+00:00,-478.39979303655144
2024-09-05 18:00:00+00:00,-473.551879181233
2024-09-05 19:00:00+00:00,-485.48032489382
2024-09-06 13:00:00+00:00,-475.2779259740555
2024-09-06 14:00:00+00:00,-494.6452176607624
2024-09-06 15:00:00+00:00,-511.518520982815
2024-09-06 16:00:00+00:00,-503.39442100105293
2024-09-06 17:00:00+00:00,-546.5052310545922
2024-09-06 18:00:00+00:00,-566.6264230786296
2024-09-06 19:00:00+00:00,-562.2575097630374
2024-09-09 13:00:00+00:00,-490.5407245113707
2024-09-09 14:00:00+00:00,-449.36721694066745
2024-09-09 15:00:00+00:00,-440.2493809763065
2024-09-09 16:00:00+00:00,-432.77855265741704
2024-09-09 17:00:00+00:00,-470.5374385003933
2024-09-09 18:00:00+00:00,-461.0052007980706
2024-09-09 19:00:00+00:00,-486.06737083532875
2024-09-10 13:00:00+00:00,-578.1708100737122
2024-09-10 14:00:00+00:00,-559.5013379107193
2024-09-10 15:00:00+00:00,-556.982082749429
2024-09-10 16:00:00+00:00,-559.9284040464767
2024-09-10 17:00:00+00:00,-556.4037878397294
2024-09-10 18:00:00+00:00,-553.4103553594697
2024-09-10 19:00:00+00:00,-539.1623318706012
2024-09-11 13:00:00+00:00,-574.0581856450405
2024-09-11 14:00:00+00:00,-565.4770189886061
2024-09-11 15:00:00+00:00,-554.9456647924383
2024-09-11 16:00:00+00:00,-548.8938651598511
2024-09-11 17:00:00+00:00,-533.4463825556566
2024-09-11 18:00:00+00:00,-515.9376205112778
2024-09-11 19:00:00+00:00,-528.5463515891641
2024-09-12 13:00:00+00:00,-500.52143190105755
2024-09-12 14:00:00+00:00,-489.6427183439227
2024-09-12 15:00:00+00:00,-520.8666388287144
2024-09-12 16:00:00+00:00,-467.48363264446436
2024-09-12 17:00:00+00:00,-479.78537214209405
2024-09-12 18:00:00+00:00,-483.8906593595051
2024-09-12 19:00:00+00:00,-474.55776676528535
2024-09-13 13:00:00+00:00,-445.53957434106337
2024-09-13 14:00:00+00:00,-431.8437420415002
2024-09-13 15:00:00+00:00,-416.86274268897944
2024-09-13 16:00:00+00:00,-420.04001141275955
2024-09-13 17:00:00+00:00,-432.06502825813754
2024-09-13 18:00:00+00:00,-435.56031714322967
2024-09-13 19:00:00+00:00,-442.1558601529701
2024-09-16 13:00:00+00:00,-439.826237693566
2024-09-16 14:00:00+00:00,-447.3916900229925
2024-09-16 15:00:00+00:00,-447.87629485643924
2024-09-16 16:00:00+00:00,-456.4490651493293
2024-09-16 17:00:00+00:00,-440.9843065362246
2024-09-16 18:00:00+00:00,-445.8809065046918
2024-09-16 19:00:00+00:00,-435.9869581531043
2024-09-17 13:00:00+00:00,-401.55150276233655
2024-09-17 14:00:00+00:00,-386.7047245639385
2024-09-17 15:00:00+00:00,-408.46277116835796
2024-09-17 16:00:00+00:00,-411.55965569415474
2024-09-17 17:00:00+00:00,-406.7913076155118
2024-09-17 18:00:00+00:00,-408.1241970162437
2024-09-17 19:00:00+00:00,-414.94034348164274
2024-09-18 13:00:00+00:00,-416.17122777851125
2024-09-18 14:00:00+00:00,-414.2757943986887
2024-09-18 15:00:00+00:00,-405.52576829113895
2024-09-18 16:00:00+00:00,-404.53658623419625
2024-09-18 17:00:00+00:00,-384.5015061611318
2024-09-18 18:00:00+00:00,-397.35714977306714
2024-09-18 19:00:00+00:00,-422.9653075380801
2024-09-19 13:00:00+00:00,-344.92194712382843
2024-09-19 14:00:00+00:00,-361.2512098403806
2024-09-19 15:00:00+00:00,-359.39765744157046
2024-09-19 16:00:00+00:00,-362.9219260055411
2024-09-19 17:00:00+00:00,-362.52397511826115
2024-09-19 18:00:00+00:00,-378.4533691498107
2024-09-19 19:00:00+00:00,-398.55479295370776
2024-09-20 13:00:00+00:00,-420.42646972485034
2024-09-20 14:00:00+00:00,-407.4830706173559
2024-09-20 15:00:00+00:00,-401.78575328955833
2024-09-20 16:00:00+00:00,-383.7299784514548
2024-09-20 17:00:00+00:00,-405.2241841556922
2024-09-20 18:00:00+00:00,-391.12281549456577
2024-09-20 19:00:00+00:00,-390.36249089452485
2024-09-23 13:00:00+00:00,-341.53025861614316
2024-09-23 14:00:00+00:00,-359.0240806191738
2024-09-23 15:00:00+00:00,-380.8920947690495
2024-09-23 16:00:00+00:00,-369.68459202512884
2024-09-23 17:00:00+00:00,-369.06201434466266
2024-09-23 18:00:00+00:00,-364.0767661488838
2024-09-23 19:00:00+00:00,-352.33190295378307
2024-09-24 13:00:00+00:00,-356.4019726989108
2024-09-24 14:00:00+00:00,-355.2944209813909
2024-09-24 15:00:00+00:00,-359.91429829760597
2024-09-24 16:00:00+00:00,-353.00288454751717
2024-09-24 17:00:00+00:00,-357.50261567732093
2024-09-24 18:00:00+00:00,-357.17096214231543
2024-09-24 19:00:00+00:00,-359.89702228869544
2024-09-25 13:00:00+00:00,-391.94147440799867
2024-09-25 14:00:00+00:00,-389.49444355690076
2024-09-25 15:00:00+00:00,-407.9302277281809
2024-09-25 16:00:00+00:00,-449.5642741741122
2024-09-25 17:00:00+00:00,-436.0574090312428
2024-09-25 18:00:00+00:00,-436.5445992898519
2024-09-25 19:00:00+00:00,-428.9078219009147
2024-09-26 13:00:00+00:00,-420.3292102412632
2024-09-26 14:00:00+00:00,-414.3225202890036
2024-09-26 15:00:00+00:00,-400.4869563808234
2024-09-26 16:00:00+00:00,-401.29367232898164
2024-09-26 17:00:00+00:00,-404.3816723569006
2024-09-26 18:00:00+00:00,-404.76168169007724
2024-09-26 19:00:00+00:00,-406.4158122793705
2024-09-27 13:00:00+00:00,-298.07452844125976
2024-09-27 14:00:00+00:00,-278.64262724317655
2024-09-27 15:00:00+00:00,-316.2059585875805
2024-09-27 16:00:00+00:00,-310.06079371591454
2024-09-27 17:00:00+00:00,-323.26158933481196
2024-09-27 18:00:00+00:00,-309.2085341654769
2024-09-27 19:00:00+00:00,-302.9345262599685
2024-09-30 13:00:00+00:00,-295.70958540915836
2024-09-30 14:00:00+00:00,-295.28887738300534
2024-09-30 15:00:00+00:00,-282.6143637041704
2024-09-30 16:00:00+00:00,-269.68477108456597
2024-09-30 17:00:00+00:00,-261.74950964594126
2024-09-30 18:00:00+00:00,-245.66656831942066
2024-09-30 19:00:00+00:00,-236.3687359754182
2024-10-01 13:00:00+00:00,-206.63353022085056
2024-10-01 14:00:00+00:00,-192.8941014412623
2024-10-01 15:00:00+00:00,-199.37729537606657
2024-10-01 16:00:00+00:00,-219.30800436357165
2024-10-01 17:00:00+00:00,-251.8911548462766
2024-10-01 18:00:00+00:00,-256.24474035822874
2024-10-01 19:00:00+00:00,-230.93337494872546
2024-10-02 13:00:00+00:00,-190.90260733402317
2024-10-02 14:00:00+00:00,-202.17904015519582
2024-10-02 15:00:00+00:00,-230.11979533810043
2024-10-02 16:00:00+00:00,-227.1581423841315
2024-10-02 17:00:00+00:00,-222.86906817754712
2024-10-02 18:00:00+00:00,-221.0483973741887
2024-10-02 19:00:00+00:00,-212.77451572840712
2024-10-03 13:00:00+00:00,-203.3222433576806
2024-10-03 14:00:00+00:00,-228.21164296880406
2024-10-03 15:00:00+00:00,-218.74186296592606
2024-10-03 16:00:00+00:00,-245.73752597300273
2024-10-03 17:00:00+00:00,-243.1300543333767
2024-10-03 18:00:00+00:00,-244.41034715250044
2024-10-03 19:00:00+00:00,-265.333456270435
2024-10-04 13:00:00+00:00,-305.65218568696326
2024-10-04 14:00:00+00:00,-331.85269363884913
2024-10-04 15:00:00+00:00,-333.7618591181425
2024-10-04 16:00:00+00:00,-327.41201925954806
2024-10-04 17:00:00+00:00,-344.19367284153486
2024-10-04 18:00:00+00:00,-343.9979136532849
2024-10-04 19:00:00+00:00,-350.19142134127424
2024-10-07 13:00:00+00:00,-363.0211490795152
2024-10-07 14:00:00+00:00,-359.38278391624436
2024-10-07 15:00:00+00:00,-365.0494190267137
2024-10-07 16:00:00+00:00,-354.13590607640515
2024-10-07 17:00:00+00:00,-357.1359189855244
2024-10-07 18:00:00+00:00,-362.03272125270206
2024-10-07 19:00:00+00:00,-361.415129683304
2024-10-08 13:00:00+00:00,-398.7358482232561
2024-10-08 14:00:00+00:00,-384.81128409903505
2024-10-08 15:00:00+00:00,-380.2258752637268
2024-10-08 16:00:00+00:00,-356.17584157297154
2024-10-08 17:00:00+00:00,-359.2533576235365
2024-10-08 18:00:00+00:00,-362.85651019503865
2024-10-08 19:00:00+00:00,-366.225486640494
2024-10-09 13:00:00+00:00,-376.1217709596436
2024-10-09 14:00:00+00:00,-358.00020432212773
2024-10-09 15:00:00+00:00,-335.42207188314643
2024-10-09 16:00:00+00:00,-337.62156973164576
2024-10-09 17:00:00+00:00,-341.6703287598031
2024-10-09 18:00:00+00:00,-331.4468263650185
2024-10-09 19:00:00+00:00,-340.42859334202825
2024-10-10 13:00:00+00:00,-300.6168595133146
2024-10-10 14:00:00+00:00,-323.12227950777066
2024-10-10 15:00:00+00:00,-302.6137068529824
2024-10-10 16:00:00+00:00,-306.7956001341343
2024-10-10 17:00:00+00:00,-319.5089738711813
2024-10-10 18:00:00+00:00,-330.87554323211765
2024-10-10 19:00:00+00:00,-330.5875431597837
2024-10-11 13:00:00+00:00,-297.2775066394642
2024-10-11 14:00:00+00:00,-299.3926100259363
2024-10-11 15:00:00+00:00,-295.66411377270214
2024-10-11 16:00:00+00:00,-307.6556481735874
2024-10-11 17:00:00+00:00,-295.5803707141637
2024-10-11 18:00:00+00:00,-292.08693733436576
2024-10-11 19:00:00+00:00,-298.4122851322717
2024-10-14 13:00:00+00:00,-297.5645748597613
2024-10-14 14:00:00+00:00,-280.6959912290111
2024-10-14 15:00:00+00:00,-276.3937667905368
2024-10-14 16:00:00+00:00,-280.17282196872804
2024-10-14 17:00:00+00:00,-272.31729662942575
2024-10-14 18:00:00+00:00,-271.7288947096812
2024-10-14 19:00:00+00:00,-258.1036411857916
2024-10-15 13:00:00+00:00,-285.2524733259525
2024-10-15 14:00:00+00:00,-294.96191770105753
2024-10-15 15:00:00+00:00,-280.20865928426855
2024-10-15 16:00:00+00:00,-297.37511352164506
2024-10-15 17:00:00+00:00,-314.02713982552444
2024-10-15 18:00:00+00:00,-317.6373355525991
2024-10-15 19:00:00+00:00,-332.2548818232788
2024-10-16 13:00:00+00:00,-296.05580333151465
2024-10-16 14:00:00+00:00,-289.9408830065623
2024-10-16 15:00:00+00:00,-295.6503998107264
2024-10-16 16:00:00+00:00,-280.7473917339849
2024-10-16 17:00:00+00:00,-290.66001547645584
2024-10-16 18:00:00+00:00,-288.48528149503244
2024-10-16 19:00:00+00:00,-289.1279661708661
2024-10-17 13:00:00+00:00,-233.02315360551972
2024-10-17 14:00:00+00:00,-218.0804719017711
2024-10-17 15:00:00+00:00,-202.04033361254838
2024-10-17 16:00:00+00:00,-214.8029179190923
2024-10-17 17:00:00+00:00,-202.94295306605682
2024-10-17 18:00:00+00:00,-191.67667330997168
2024-10-17 19:00:00+00:00,-167.44489841602993
2024-10-18 13:00:00+00:00,-167.44489841602993
2024-10-18 14:00:00+00:00,-167.44489841602993
2024-10-18 15:00:00+00:00,-167.44489841602993
2024-10-18 16:00:00+00:00,-167.44489841602993
2024-10-18 17:00:00+00:00,-167.44489841602993
2024-10-18 18:00:00+00:00,-167.44489841602993
2024-10-18 19:00:00+00:00,-167.44489841602993
2024-10-21 13:00:00+00:00,-167.44489841602993
2024-10-21 14:00:00+00:00,-167.44489841602993
2024-10-21 15:00:00+00:00,-167.44489841602993
2024-10-21 16:00:00+00:00,-167.44489841602993
2024-10-21 17:00:00+00:00,-167.44489841602993
2024-10-21 18:00:00+00:00,-167.44489841602993
2024-10-21 19:00:00+00:00,-167.44489841602993
2024-10-22 13:00:00+00:00,-167.44489841602993
2024-10-22 14:00:00+00:00,-167.44489841602993
2024-10-22 15:00:00+00:00,-167.44489841602993
2024-10-22 16:00:00+00:00,-167.44489841602993
2024-10-22 17:00:00+00:00,-167.44489841602993
2024-10-22 18:00:00+00:00,-167.44489841602993
2024-10-22 19:00:00+00:00,-167.44489841602993
2024-10-23 13:00:00+00:00,-167.44489841602993
2024-10-23 14:00:00+00:00,-167.44489841602993
2024-10-23 15:00:00+00:00,-167.44489841602993
2024-10-23 16:00:00+00:00,-167.44489841602993
2024-10-23 17:00:00+00:00,-167.44489841602993
2024-10-23 18:00:00+00:00,-167.44489841602993
2024-10-23 19:00:00+00:00,-167.44489841602993
2024-10-24 13:00:00+00:00,-167.44489841602993
2024-10-24 14:00:00+00:00,-167.44489841602993
2024-10-24 15:00:00+00:00,-167.44489841602993
2024-10-24 16:00:00+00:00,-167.44489841602993
2024-10-24 17:00:00+00:00,-167.44489841602993
2024-10-24 18:00:00+00:00,-167.44489841602993
2024-10-24 19:00:00+00:00,-167.44489841602993
2024-10-25 13:00:00+00:00,-167.44489841602993
2024-10-25 14:00:00+00:00,-167.44489841602993
2024-10-25 15:00:00+00:00,-167.44489841602993
2024-10-25 16:00:00+00:00,-167.44489841602993
2024-10-25 17:00:00+00:00,-167.44489841602993
2024-10-25 18:00:00+00:00,-167.44489841602993
2024-10-25 19:00:00+00:00,-167.44489841602993
2024-10-28 13:00:00+00:00,-167.44489841602993
2024-10-28 14:00:00+00:00,-167.44489841602993
2024-10-28 15:00:00+00:00,-167.44489841602993
2024-10-28 16:00:00+00:00,-167.44489841602993
2024-10-28 17:00:00+00:00,-167.44489841602993
2024-10-28 18:00:00+00:00,-167.44489841602993
2024-10-28 19:00:00+00:00,-167.44489841602993
2024-10-29 13:00:00+00:00,-167.44489841602993
2024-10-29 14:00:00+00:00,-167.44489841602993
2024-10-29 15:00:00+00:00,-167.44489841602993
2024-10-29 16:00:00+00:00,-167.44489841602993
2024-10-29 17:00:00+00:00,-167.44489841602993
2024-10-29 18:00:00+00:00,-167.44489841602993
2024-10-29 19:00:00+00:00,-167.44489841602993
2024-10-30 13:00:00+00:00,-167.44489841602993
2024-10-30 14:00:00+00:00,-167.44489841602993
2024-10-30 15:00:00+00:00,-167.44489841602993
2024-10-30 16:00:00+00:00,-167.44489841602993
2024-10-30 17:00:00+00:00,-167.44489841602993
2024-10-30 18:00:00+00:00,-167.44489841602993
2024-10-30 19:00:00+00:00,-167.44489841602993
2024-10-31 13:00:00+00:00,-167.44489841602993
2024-10-31 14:00:00+00:00,-167.44489841602993
2024-10-31 15:00:00+00:00,-167.44489841602993
2024-10-31 16:00:00+00:00,-167.44489841602993
2024-10-31 17:00:00+00:00,-167.44489841602993
2024-10-31 18:00:00+00:00,-167.44489841602993
2024-10-31 19:00:00+00:00,-167.44489841602993
2024-11-01 13:00:00+00:00,-167.44489841602993
2024-11-01 14:00:00+00:00,-167.44489841602993
2024-11-01 15:00:00+00:00,-167.44489841602993
2024-11-01 16:00:00+00:00,-167.44489841602993
2024-11-01 17:00:00+00:00,-167.44489841602993
2024-11-01 18:00:00+00:00,-167.44489841602993
2024-11-01 19:00:00+00:00,-167.44489841602993
2024-11-04 14:00:00+00:00,-167.44489841602993
2024-11-04 15:00:00+00:00,-167.44489841602993
2024-11-04 16:00:00+00:00,-167.44489841602993
2024-11-04 17:00:00+00:00,-167.44489841602993
2024-11-04 18:00:00+00:00,-167.44489841602993
2024-11-04 19:00:00+00:00,-167.44489841602993
2024-11-04 20:00:00+00:00,-167.44489841602993
2024-11-05 14:00:00+00:00,-167.44489841602993
2024-11-05 15:00:00+00:00,-167.44489841602993
2024-11-05 16:00:00+00:00,-167.44489841602993
2024-11-05 17:00:00+00:00,-167.44489841602993
2024-11-05 18:00:00+00:00,-167.44489841602993
2024-11-05 19:00:00+00:00,-167.44489841602993
2024-11-05 20:00:00+00:00,-167.44489841602993
2024-11-06 14:00:00+00:00,-167.44489841602993
2024-11-06 15:00:00+00:00,-167.44489841602993
2024-11-06 16:00:00+00:00,-167.44489841602993
2024-11-06 17:00:00+00:00,-167.44489841602993
2024-11-06 18:00:00+00:00,-167.44489841602993
2024-11-06 19:00:00+00:00,-167.44489841602993
2024-11-06 20:00:00+00:00,-167.44489841602993
2024-11-07 14:00:00+00:00,-167.44489841602993
2024-11-07 15:00:00+00:00,-167.44489841602993
2024-11-07 16:00:00+00:00,-167.44489841602993
2024-11-07 17:00:00+00:00,-167.44489841602993
2024-11-07 18:00:00+00:00,-167.44489841602993
2024-11-07 19:00:00+00:00,-167.44489841602993
2024-11-07 20:00:00+00:00,-167.44489841602993
2024-11-08 14:00:00+00:00,-167.44489841602993
2024-11-08 15:00:00+00:00,-167.44489841602993
2024-11-08 16:00:00+00:00,-167.44489841602993
2024-11-08 17:00:00+00:00,-167.44489841602993
2024-11-08 18:00:00+00:00,-167.44489841602993
2024-11-08 19:00:00+00:00,-167.44489841602993
2024-11-08 20:00:00+00:00,-167.44489841602993
2024-11-11 14:00:00+00:00,-167.44489841602993
2024-11-11 15:00:00+00:00,-167.44489841602993
2024-11-11 16:00:00+00:00,-167.44489841602993
2024-11-11 17:00:00+00:00,-167.44489841602993
2024-11-11 18:00:00+00:00,-167.44489841602993
2024-11-11 19:00:00+00:00,-167.44489841602993
2024-11-11 20:00:00+00:00,-167.44489841602993
2024-11-12 14:00:00+00:00,-167.44489841602993
2024-11-12 15:00:00+00:00,-167.44489841602993
2024-11-12 16:00:00+00:00,-167.44489841602993
2024-11-12 17:00:00+00:00,-167.44489841602993
2024-11-12 18:00:00+00:00,-167.44489841602993
2024-11-12 19:00:00+00:00,-167.44489841602993
2024-11-12 20:00:00+00:00,-167.44489841602993
2024-11-13 14:00:00+00:00,-167.44489841602993
2024-11-13 15:00:00+00:00,-167.44489841602993
2024-11-13 16:00:00+00:00,-167.44489841602993
2024-11-13 17:00:00+00:00,-167.44489841602993
2024-11-13 18:00:00+00:00,-167.44489841602993
2024-11-13 19:00:00+00:00,-167.44489841602993
2024-11-13 20:00:00+00:00,-167.44489841602993
2024-11-14 14:00:00+00:00,-167.44489841602993
2024-11-14 15:00:00+00:00,-167.44489841602993
2024-11-14 16:00:00+00:00,-167.44489841602993
2024-11-14 17:00:00+00:00,-167.44489841602993
2024-11-14 18:00:00+00:00,-167.44489841602993
2024-11-14 19:00:00+00:00,-167.44489841602993
2024-11-14 20:00:00+00:00,-167.44489841602993
2024-11-15 14:00:00+00:00,-167.44489841602993
2024-11-15 15:00:00+00:00,-167.44489841602993
2024-11-15 16:00:00+00:00,-167.44489841602993
2024-11-15 17:00:00+00:00,-167.44489841602993
2024-11-15 18:00:00+00:00,-167.44489841602993
2024-11-15 19:00:00+00:00,-167.44489841602993
2024-11-15 20:00:00+00:00,-167.44489841602993
2024-11-18 14:00:00+00:00,-167.44489841602993
2024-11-18 15:00:00+00:00,-167.44489841602993
2024-11-18 16:00:00+00:00,-167.44489841602993
2024-11-18 17:00:00+00:00,-167.44489841602993
2024-11-18 18:00:00+00:00,-167.44489841602993
2024-11-18 19:00:00+00:00,-167.44489841602993
2024-11-18 20:00:00+00:00,-167.44489841602993
2024-11-19 14:00:00+00:00,-167.44489841602993
2024-11-19 15:00:00+00:00,-167.44489841602993
2024-11-19 16:00:00+00:00,-167.44489841602993
2024-11-19 17:00:00+00:00,-167.44489841602993
2024-11-19 18:00:00+00:00,-167.44489841602993
2024-11-19 19:00:00+00:00,-167.44489841602993
2024-11-19 20:00:00+00:00,-167.44489841602993
2024-11-20 14:00:00+00:00,-167.44489841602993
2024-11-20 15:00:00+00:00,-167.44489841602993
2024-11-20 16:00:00+00:00,-167.44489841602993
2024-11-20 17:00:00+00:00,-167.44489841602993
2024-11-20 18:00:00+00:00,-167.44489841602993
2024-11-20 19:00:00+00:00,-167.44489841602993
2024-11-20 20:00:00+00:00,-167.44489841602993
2024-11-21 14:00:00+00:00,-167.44489841602993
2024-11-21 15:00:00+00:00,-167.44489841602993
2024-11-21 16:00:00+00:00,-167.44489841602993
2024-11-21 17:00:00+00:00,-167.44489841602993
2024-11-21 18:00:00+00:00,-167.44489841602993
2024-11-21 19:00:00+00:00,-167.44489841602993
2024-11-21 20:00:00+00:00,-167.44489841602993
2024-11-22 14:00:00+00:00,-167.44489841602993
2024-11-22 15:00:00+00:00,-167.44489841602993
2024-11-22 16:00:00+00:00,-167.44489841602993
2024-11-22 17:00:00+00:00,-167.44489841602993
2024-11-22 18:00:00+00:00,-167.44489841602993
2024-11-22 19:00:00+00:00,-167.44489841602993
2024-11-22 20:00:00+00:00,-167.44489841602993
2024-11-25 14:00:00+00:00,-167.44489841602993
2024-11-25 15:00:00+00:00,-167.44489841602993
2024-11-25 16:00:00+00:00,-167.44489841602993
2024-11-25 17:00:00+00:00,-167.44489841602993
2024-11-25 18:00:00+00:00,-167.44489841602993
2024-11-25 19:00:00+00:00,-167.44489841602993
2024-11-25 20:00:00+00:00,-167.44489841602993
2024-11-26 14:00:00+00:00,-167.44489841602993
2024-11-26 15:00:00+00:00,-167.44489841602993
2024-11-26 16:00:00+00:00,-167.44489841602993
2024-11-26 17:00:00+00:00,-167.44489841602993
2024-11-26 18:00:00+00:00,-167.44489841602993
2024-11-26 19:00:00+00:00,-167.44489841602993
2024-11-26 20:00:00+00:00,-167.44489841602993
2024-11-27 14:00:00+00:00,-167.44489841602993
2024-11-27 15:00:00+00:00,-167.44489841602993
2024-11-27 16:00:00+00:00,-167.44489841602993
2024-11-27 17:00:00+00:00,-167.44489841602993
2024-11-27 18:00:00+00:00,-167.44489841602993
2024-11-27 19:00:00+00:00,-167.44489841602993
2024-11-27 20:00:00+00:00,-167.44489841602993
2024-11-29 14:00:00+00:00,-167.44489841602993
2024-11-29 15:00:00+00:00,-167.44489841602993
2024-11-29 16:00:00+00:00,-167.44489841602993
2024-12-02 14:00:00+00:00,-167.44489841602993
2024-12-02 15:00:00+00:00,-167.44489841602993
2024-12-02 16:00:00+00:00,-167.44489841602993
2024-12-02 17:00:00+00:00,-167.44489841602993
2024-12-02 18:00:00+00:00,-167.44489841602993
2024-12-02 19:00:00+00:00,-167.44489841602993
2024-12-02 20:00:00+00:00,-167.44489841602993
2024-12-03 14:00:00+00:00,-167.44489841602993
2024-12-03 15:00:00+00:00,-167.44489841602993
2024-12-03 16:00:00+00:00,-167.44489841602993
2024-12-03 17:00:00+00:00,-167.44489841602993
2024-12-03 18:00:00+00:00,-167.44489841602993
2024-12-03 19:00:00+00:00,-167.44489841602993
2024-12-03 20:00:00+00:00,-167.44489841602993
2024-12-04 14:00:00+00:00,-167.44489841602993
2024-12-04 15:00:00+00:00,-167.44489841602993
2024-12-04 16:00:00+00:00,-167.44489841602993
2024-12-04 17:00:00+00:00,-167.44489841602993
2024-12-04 18:00:00+00:00,-167.44489841602993
2024-12-04 19:00:00+00:00,-167.44489841602993
2024-12-04 20:00:00+00:00,-167.44489841602993
2024-12-05 14:00:00+00:00,-167.44489841602993
2024-12-05 15:00:00+00:00,-167.44489841602993
2024-12-05 16:00:00+00:00,-167.44489841602993
2024-12-05 17:00:00+00:00,-167.44489841602993
2024-12-05 18:00:00+00:00,-167.44489841602993
2024-12-05 19:00:00+00:00,-167.44489841602993
2024-12-05 20:00:00+00:00,-167.44489841602993
2024-12-06 14:00:00+00:00,-167.44489841602993
2024-12-06 15:00:00+00:00,-167.44489841602993
2024-12-06 16:00:00+00:00,-167.44489841602993
2024-12-06 17:00:00+00:00,-167.44489841602993
2024-12-06 18:00:00+00:00,-167.44489841602993
2024-12-06 19:00:00+00:00,-167.44489841602993
2024-12-06 20:00:00+00:00,-167.44489841602993
2024-12-09 14:00:00+00:00,-167.44489841602993
2024-12-09 15:00:00+00:00,-167.44489841602993
2024-12-09 16:00:00+00:00,-167.44489841602993
2024-12-09 17:00:00+00:00,-167.44489841602993
2024-12-09 18:00:00+00:00,-167.44489841602993
2024-12-09 19:00:00+00:00,-167.44489841602993
2024-12-09 20:00:00+00:00,-167.44489841602993
2024-12-10 14:00:00+00:00,-167.44489841602993
2024-12-10 15:00:00+00:00,-167.44489841602993
2024-12-10 16:00:00+00:00,-167.44489841602993
2024-12-10 17:00:00+00:00,-167.44489841602993
2024-12-10 18:00:00+00:00,-167.44489841602993
2024-12-10 19:00:00+00:00,-167.44489841602993
2024-12-10 20:00:00+00:00,-167.44489841602993
2024-12-11 14:00:00+00:00,-167.44489841602993
2024-12-11 15:00:00+00:00,-167.44489841602993
2024-12-11 16:00:00+00:00,-167.44489841602993
2024-12-11 17:00:00+00:00,-167.44489841602993
2024-12-11 18:00:00+00:00,-167.44489841602993
2024-12-11 19:00:00+00:00,-167.44489841602993
2024-12-11 20:00:00+00:00,-167.44489841602993
2024-12-12 14:00:00+00:00,-167.44489841602993
2024-12-12 15:00:00+00:00,-167.44489841602993
2024-12-12 16:00:00+00:00,-167.44489841602993
2024-12-12 17:00:00+00:00,-167.44489841602993
2024-12-12 18:00:00+00:00,-167.44489841602993
2024-12-12 19:00:00+00:00,-167.44489841602993
2024-12-12 20:00:00+00:00,-167.44489841602993
2024-12-13 14:00:00+00:00,-167.44489841602993
2024-12-13 15:00:00+00:00,-167.44489841602993
2024-12-13 16:00:00+00:00,-167.44489841602993
2024-12-13 17:00:00+00:00,-167.44489841602993
2024-12-13 18:00:00+00:00,-167.44489841602993
2024-12-13 19:00:00+00:00,-167.44489841602993
2024-12-13 20:00:00+00:00,-167.44489841602993
2024-12-16 14:00:00+00:00,-167.44489841602993
2024-12-16 15:00:00+00:00,-167.44489841602993
2024-12-16 16:00:00+00:00,-167.44489841602993
2024-12-16 17:00:00+00:00,-167.44489841602993
2024-12-16 18:00:00+00:00,-167.44489841602993
2024-12-16 19:00:00+00:00,-167.44489841602993
2024-12-16 20:00:00+00:00,-167.44489841602993
2024-12-17 14:00:00+00:00,-167.44489841602993
2024-12-17 15:00:00+00:00,-167.44489841602993
2024-12-17 16:00:00+00:00,-167.44489841602993
2024-12-17 17:00:00+00:00,-167.44489841602993
2024-12-17 18:00:00+00:00,-167.44489841602993
2024-12-17 19:00:00+00:00,-167.44489841602993
2024-12-17 20:00:00+00:00,-167.44489841602993
2024-12-18 14:00:00+00:00,-167.44489841602993
2024-12-18 15:00:00+00:00,-167.44489841602993
2024-12-18 16:00:00+00:00,-167.44489841602993
2024-12-18 17:00:00+00:00,-167.44489841602993
2024-12-18 18:00:00+00:00,-167.44489841602993
2024-12-18 19:00:00+00:00,-167.44489841602993
2024-12-18 20:00:00+00:00,-167.44489841602993
2024-12-19 14:00:00+00:00,-167.44489841602993
2024-12-19 15:00:00+00:00,-167.44489841602993
2024-12-19 16:00:00+00:00,-167.44489841602993
2024-12-19 17:00:00+00:00,-167.44489841602993
2024-12-19 18:00:00+00:00,-167.44489841602993
2024-12-19 19:00:00+00:00,-167.44489841602993
2024-12-19 20:00:00+00:00,-167.44489841602993
2024-12-20 14:00:00+00:00,-167.44489841602993
2024-12-20 15:00:00+00:00,-167.44489841602993
2024-12-20 16:00:00+00:00,-167.44489841602993
2024-12-20 17:00:00+00:00,-167.44489841602993
2024-12-20 18:00:00+00:00,-167.44489841602993
2024-12-20 19:00:00+00:00,-167.44489841602993
2024-12-20 20:00:00+00:00,-167.44489841602993
2024-12-23 14:00:00+00:00,-167.44489841602993
2024-12-23 15:00:00+00:00,-167.44489841602993
2024-12-23 16:00:00+00:00,-167.44489841602993
2024-12-23 17:00:00+00:00,-167.44489841602993
2024-12-23 18:00:00+00:00,-167.44489841602993
2024-12-23 19:00:00+00:00,-167.44489841602993
2024-12-23 20:00:00+00:00,-167.44489841602993
2024-12-24 14:00:00+00:00,-167.44489841602993
2024-12-24 15:00:00+00:00,-167.44489841602993
2024-12-24 16:00:00+00:00,-167.44489841602993
2024-12-26 14:00:00+00:00,-167.44489841602993
2024-12-26 15:00:00+00:00,-167.44489841602993
2024-12-26 16:00:00+00:00,-167.44489841602993
2024-12-26 17:00:00+00:00,-167.44489841602993
2024-12-26 18:00:00+00:00,-167.44489841602993
2024-12-26 19:00:00+00:00,-167.44489841602993
2024-12-26 20:00:00+00:00,-167.44489841602993
2024-12-27 14:00:00+00:00,-167.44489841602993
2024-12-27 15:00:00+00:00,-167.44489841602993
2024-12-27 16:00:00+00:00,-167.44489841602993
2024-12-27 17:00:00+00:00,-167.44489841602993
2024-12-27 18:00:00+00:00,-167.44489841602993
2024-12-27 19:00:00+00:00,-167.44489841602993
2024-12-27 20:00:00+00:00,-167.44489841602993
2024-12-30 14:00:00+00:00,-167.44489841602993
2024-12-30 15:00:00+00:00,-167.44489841602993
2024-12-30 16:00:00+00:00,-167.44489841602993
2024-12-30 17:00:00+00:00,-167.44489841602993
2024-12-30 18:00:00+00:00,-167.44489841602993
2024-12-30 19:00:00+00:00,-167.44489841602993
2024-12-30 20:00:00+00:00,-167.44489841602993
2024-12-31 14:00:00+00:00,-167.44489841602993
2024-12-31 15:00:00+00:00,-167.44489841602993
2024-12-31 16:00:00+00:00,-167.44489841602993
2024-12-31 17:00:00+00:00,-167.44489841602993
2024-12-31 18:00:00+00:00,-167.44489841602993
2024-12-31 19:00:00+00:00,-167.44489841602993
2024-12-31 20:00:00+00:00,-167.44489841602993
2025-01-02 14:00:00+00:00,-167.44489841602993
2025-01-02 15:00:00+00:00,-167.44489841602993
2025-01-02 16:00:00+00:00,-167.44489841602993
2025-01-02 17:00:00+00:00,-167.44489841602993
2025-01-02 18:00:00+00:00,-167.44489841602993
2025-01-02 19:00:00+00:00,-167.44489841602993
2025-01-02 20:00:00+00:00,-167.44489841602993
2025-01-03 14:00:00+00:00,-167.44489841602993
2025-01-03 15:00:00+00:00,-167.44489841602993
2025-01-03 16:00:00+00:00,-167.44489841602993
2025-01-03 17:00:00+00:00,-167.44489841602993
2025-01-03 18:00:00+00:00,-167.44489841602993
2025-01-03 19:00:00+00:00,-167.44489841602993
2025-01-03 20:00:00+00:00,-167.44489841602993
2025-01-06 14:00:00+00:00,-167.44489841602993
2025-01-06 15:00:00+00:00,-167.44489841602993
2025-01-06 16:00:00+00:00,-167.44489841602993
2025-01-06 17:00:00+00:00,-167.44489841602993
2025-01-06 18:00:00+00:00,-167.44489841602993
2025-01-06 19:00:00+00:00,-167.44489841602993
2025-01-06 20:00:00+00:00,-167.44489841602993
2025-01-07 14:00:00+00:00,-167.44489841602993
2025-01-07 15:00:00+00:00,-167.44489841602993
2025-01-07 16:00:00+00:00,-167.44489841602993
2025-01-07 17:00:00+00:00,-167.44489841602993
2025-01-07 18:00:00+00:00,-167.44489841602993
2025-01-07 19:00:00+00:00,-167.44489841602993
2025-01-07 20:00:00+00:00,-167.44489841602993
2025-01-08 14:00:00+00:00,-167.44489841602993
2025-01-08 15:00:00+00:00,-167.44489841602993
2025-01-08 16:00:00+00:00,-167.44489841602993
2025-01-08 17:00:00+00:00,-167.44489841602993
2025-01-08 18:00:00+00:00,-167.44489841602993
2025-01-08 19:00:00+00:00,-167.44489841602993
2025-01-08 20:00:00+00:00,-167.44489841602993
2025-01-10 14:00:00+00:00,-167.44489841602993
2025-01-10 15:00:00+00:00,-167.44489841602993
2025-01-10 16:00:00+00:00,-167.44489841602993
2025-01-10 17:00:00+00:00,-167.44489841602993
2025-01-10 18:00:00+00:00,-167.44489841602993
2025-01-10 19:00:00+00:00,-167.44489841602993
2025-01-10 20:00:00+00:00,-167.44489841602993
2025-01-13 14:00:00+00:00,-167.44489841602993
2025-01-13 15:00:00+00:00,-167.44489841602993
2025-01-13 16:00:00+00:00,-167.44489841602993
2025-01-13 17:00:00+00:00,-167.44489841602993
2025-01-13 18:00:00+00:00,-167.44489841602993
2025-01-13 19:00:00+00:00,-167.44489841602993
2025-01-13 20:00:00+00:00,-167.44489841602993
2025-01-14 14:00:00+00:00,-167.44489841602993
2025-01-14 15:00:00+00:00,-167.44489841602993
2025-01-14 16:00:00+00:00,-167.44489841602993
2025-01-14 17:00:00+00:00,-167.44489841602993
2025-01-14 18:00:00+00:00,-167.44489841602993
2025-01-14 19:00:00+00:00,-167.44489841602993
2025-01-14 20:00:00+00:00,-167.44489841602993
2025-01-15 14:00:00+00:00,-167.44489841602993
2025-01-15 15:00:00+00:00,-167.44489841602993
2025-01-15 16:00:00+00:00,-167.44489841602993
2025-01-15 17:00:00+00:00,-167.44489841602993
2025-01-15 18:00:00+00:00,-167.44489841602993
2025-01-15 19:00:00+00:00,-167.44489841602993
2025-01-15 20:00:00+00:00,-167.44489841602993
2025-01-16 14:00:00+00:00,-167.44489841602993
2025-01-16 15:00:00+00:00,-167.44489841602993
2025-01-16 16:00:00+00:00,-167.44489841602993
2025-01-16 17:00:00+00:00,-167.44489841602993
2025-01-16 18:00:00+00:00,-167.44489841602993
2025-01-16 19:00:00+00:00,-167.44489841602993
2025-01-16 20:00:00+00:00,-167.44489841602993
2025-01-17 14:00:00+00:00,-167.44489841602993
2025-01-17 15:00:00+00:00,-167.44489841602993
2025-01-17 16:00:00+00:00,-167.44489841602993
2025-01-17 17:00:00+00:00,-167.44489841602993
2025-01-17 18:00:00+00:00,-167.44489841602993
2025-01-17 19:00:00+00:00,-167.44489841602993
2025-01-17 20:00:00+00:00,-167.44489841602993
2025-01-21 14:00:00+00:00,-167.44489841602993
2025-01-21 15:00:00+00:00,-167.44489841602993
2025-01-21 16:00:00+00:00,-167.44489841602993
2025-01-21 17:00:00+00:00,-167.44489841602993
2025-01-21 18:00:00+00:00,-167.44489841602993
2025-01-21 19:00:00+00:00,-167.44489841602993
2025-01-21 20:00:00+00:00,-167.44489841602993
2025-01-22 14:00:00+00:00,-167.44489841602993
2025-01-22 15:00:00+00:00,-167.44489841602993
2025-01-22 16:00:00+00:00,-167.44489841602993
2025-01-22 17:00:00+00:00,-167.44489841602993
2025-01-22 18:00:00+00:00,-167.44489841602993
2025-01-22 19:00:00+00:00,-167.44489841602993
2025-01-22 20:00:00+00:00,-167.44489841602993
2025-01-23 14:00:00+00:00,-167.44489841602993
2025-01-23 15:00:00+00:00,-167.44489841602993
2025-01-23 16:00:00+00:00,-167.44489841602993
2025-01-23 17:00:00+00:00,-167.44489841602993
2025-01-23 18:00:00+00:00,-167.44489841602993
2025-01-23 19:00:00+00:00,-167.44489841602993
2025-01-23 20:00:00+00:00,-167.44489841602993
2025-01-24 14:00:00+00:00,-167.44489841602993
2025-01-24 15:00:00+00:00,-167.44489841602993
2025-01-24 16:00:00+00:00,-167.44489841602993
2025-01-24 17:00:00+00:00,-167.44489841602993
2025-01-24 18:00:00+00:00,-167.44489841602993
2025-01-24 19:00:00+00:00,-167.44489841602993
2025-01-24 20:00:00+00:00,-167.44489841602993
2025-01-27 14:00:00+00:00,-167.44489841602993
2025-01-27 15:00:00+00:00,-167.44489841602993
2025-01-27 16:00:00+00:00,-167.44489841602993
2025-01-27 17:00:00+00:00,-167.44489841602993
2025-01-27 18:00:00+00:00,-167.44489841602993
2025-01-27 19:00:00+00:00,-167.44489841602993
2025-01-27 20:00:00+00:00,-167.44489841602993
2025-01-28 14:00:00+00:00,-167.44489841602993
2025-01-28 15:00:00+00:00,-167.44489841602993
2025-01-28 16:00:00+00:00,-167.44489841602993
2025-01-28 17:00:00+00:00,-167.44489841602993
2025-01-28 18:00:00+00:00,-167.44489841602993
2025-01-28 19:00:00+00:00,-167.44489841602993
2025-01-28 20:00:00+00:00,-167.44489841602993
2025-01-29 14:00:00+00:00,-167.44489841602993
2025-01-29 15:00:00+00:00,-167.44489841602993
2025-01-29 16:00:00+00:00,-167.44489841602993
2025-01-29 17:00:00+00:00,-167.44489841602993
2025-01-29 18:00:00+00:00,-167.44489841602993
2025-01-29 19:00:00+00:00,-167.44489841602993
2025-01-29 20:00:00+00:00,-167.44489841602993
2025-01-30 14:00:00+00:00,-167.44489841602993
2025-01-30 15:00:00+00:00,-167.44489841602993
2025-01-30 16:00:00+00:00,-167.44489841602993
2025-01-30 17:00:00+00:00,-167.44489841602993
2025-01-30 18:00:00+00:00,-167.44489841602993
2025-01-30 19:00:00+00:00,-167.44489841602993
2025-01-30 20:00:00+00:00,-167.44489841602993
2025-01-31 14:00:00+00:00,-167.44489841602993
2025-01-31 15:00:00+00:00,-167.44489841602993
2025-01-31 16:00:00+00:00,-167.44489841602993
2025-01-31 17:00:00+00:00,-167.44489841602993
2025-01-31 18:00:00+00:00,-167.44489841602993
2025-01-31 19:00:00+00:00,-167.44489841602993
2025-01-31 20:00:00+00:00,-167.44489841602993
2025-02-03 14:00:00+00:00,-167.44489841602993
2025-02-03 15:00:00+00:00,-167.44489841602993
2025-02-03 16:00:00+00:00,-167.44489841602993
2025-02-03 17:00:00+00:00,-167.44489841602993
2025-02-03 18:00:00+00:00,-167.44489841602993
2025-02-03 19:00:00+00:00,-167.44489841602993
2025-02-03 20:00:00+00:00,-167.44489841602993
2025-02-04 14:00:00+00:00,-167.44489841602993
2025-02-04 15:00:00+00:00,-167.44489841602993
2025-02-04 16:00:00+00:00,-167.44489841602993
2025-02-04 17:00:00+00:00,-167.44489841602993
2025-02-04 18:00:00+00:00,-167.44489841602993
2025-02-04 19:00:00+00:00,-167.44489841602993
2025-02-04 20:00:00+00:00,-167.44489841602993
2025-02-05 14:00:00+00:00,-167.44489841602993
2025-02-05 15:00:00+00:00,-167.44489841602993
2025-02-05 16:00:00+00:00,-167.44489841602993
2025-02-05 17:00:00+00:00,-167.44489841602993
2025-02-05 18:00:00+00:00,-167.44489841602993
2025-02-05 19:00:00+00:00,-167.44489841602993
2025-02-05 20:00:00+00:00,-167.44489841602993
2025-02-06 14:00:00+00:00,-167.44489841602993
2025-02-06 15:00:00+00:00,-167.44489841602993
2025-02-06 16:00:00+00:00,-167.44489841602993
2025-02-06 17:00:00+00:00,-167.44489841602993
2025-02-06 18:00:00+00:00,-167.44489841602993
2025-02-06 19:00:00+00:00,-167.44489841602993
2025-02-06 20:00:00+00:00,-167.44489841602993
2025-02-07 14:00:00+00:00,-167.44489841602993
2025-02-07 15:00:00+00:00,-167.44489841602993
2025-02-07 16:00:00+00:00,-167.44489841602993
2025-02-07 17:00:00+00:00,-167.44489841602993
2025-02-07 18:00:00+00:00,-167.44489841602993
2025-02-07 19:00:00+00:00,-167.44489841602993
2025-02-07 20:00:00+00:00,-167.44489841602993
2025-02-10 14:00:00+00:00,-167.44489841602993
2025-02-10 15:00:00+00:00,-167.44489841602993
2025-02-10 16:00:00+00:00,-167.44489841602993
2025-02-10 17:00:00+00:00,-167.44489841602993
2025-02-10 18:00:00+00:00,-167.44489841602993
2025-02-10 19:00:00+00:00,-167.44489841602993
2025-02-10 20:00:00+00:00,-167.44489841602993
2025-02-11 14:00:00+00:00,-167.44489841602993
2025-02-11 15:00:00+00:00,-167.44489841602993
2025-02-11 16:00:00+00:00,-167.44489841602993
2025-02-11 17:00:00+00:00,-167.44489841602993
2025-02-11 18:00:00+00:00,-167.44489841602993
2025-02-11 19:00:00+00:00,-167.44489841602993
2025-02-11 20:00:00+00:00,-167.44489841602993
2025-02-12 14:00:00+00:00,-167.44489841602993
2025-02-12 15:00:00+00:00,-167.44489841602993
2025-02-12 16:00:00+00:00,-167.44489841602993
2025-02-12 17:00:00+00:00,-167.44489841602993
2025-02-12 18:00:00+00:00,-167.44489841602993
2025-02-12 19:00:00+00:00,-167.44489841602993
2025-02-12 20:00:00+00:00,-167.44489841602993
2025-02-13 14:00:00+00:00,-167.44489841602993
2025-02-13 15:00:00+00:00,-167.44489841602993
2025-02-13 16:00:00+00:00,-167.44489841602993
2025-02-13 17:00:00+00:00,-167.44489841602993
2025-02-13 18:00:00+00:00,-167.44489841602993
2025-02-13 19:00:00+00:00,-167.44489841602993
2025-02-13 20:00:00+00:00,-167.44489841602993
2025-02-14 14:00:00+00:00,-167.44489841602993
2025-02-14 15:00:00+00:00,-167.44489841602993
2025-02-14 16:00:00+00:00,-167.44489841602993
2025-02-14 17:00:00+00:00,-167.44489841602993
2025-02-14 18:00:00+00:00,-167.44489841602993
2025-02-14 19:00:00+00:00,-167.44489841602993
2025-02-14 20:00:00+00:00,-167.44489841602993
2025-02-18 14:00:00+00:00,-167.44489841602993
2025-02-18 15:00:00+00:00,-167.44489841602993
2025-02-18 16:00:00+00:00,-167.44489841602993
2025-02-18 17:00:00+00:00,-167.44489841602993
2025-02-18 18:00:00+00:00,-167.44489841602993
2025-02-18 19:00:00+00:00,-167.44489841602993
2025-02-18 20:00:00+00:00,-167.44489841602993
2025-02-19 14:00:00+00:00,-167.44489841602993
2025-02-19 15:00:00+00:00,-167.44489841602993
2025-02-19 16:00:00+00:00,-167.44489841602993
2025-02-19 17:00:00+00:00,-167.44489841602993
2025-02-19 18:00:00+00:00,-167.44489841602993
2025-02-19 19:00:00+00:00,-167.44489841602993
2025-02-19 20:00:00+00:00,-167.44489841602993
2025-02-20 14:00:00+00:00,-167.44489841602993
2025-02-20 15:00:00+00:00,-167.44489841602993
2025-02-20 16:00:00+00:00,-167.44489841602993
2025-02-20 17:00:00+00:00,-167.44489841602993
2025-02-20 18:00:00+00:00,-167.44489841602993
2025-02-20 19:00:00+00:00,-167.44489841602993
2025-02-20 20:00:00+00:00,-167.44489841602993
2025-02-21 14:00:00+00:00,-167.44489841602993
2025-02-21 15:00:00+00:00,-167.44489841602993
2025-02-21 16:00:00+00:00,-167.44489841602993
2025-02-21 17:00:00+00:00,-167.44489841602993
2025-02-21 18:00:00+00:00,-167.44489841602993
2025-02-21 19:00:00+00:00,-167.44489841602993
2025-02-21 20:00:00+00:00,-167.44489841602993
2025-02-24 14:00:00+00:00,-167.44489841602993
2025-02-24 15:00:00+00:00,-167.44489841602993
2025-02-24 16:00:00+00:00,-167.44489841602993
2025-02-24 17:00:00+00:00,-167.44489841602993
2025-02-24 18:00:00+00:00,-167.44489841602993
2025-02-24 19:00:00+00:00,-167.44489841602993
2025-02-24 20:00:00+00:00,-167.44489841602993
2025-02-25 14:00:00+00:00,-167.44489841602993
2025-02-25 15:00:00+00:00,-167.44489841602993
2025-02-25 16:00:00+00:00,-167.44489841602993
2025-02-25 17:00:00+00:00,-167.44489841602993
2025-02-25 18:00:00+00:00,-167.44489841602993
2025-02-25 19:00:00+00:00,-167.44489841602993
2025-02-25 20:00:00+00:00,-167.44489841602993
2025-02-26 14:00:00+00:00,-167.44489841602993
2025-02-26 15:00:00+00:00,-167.44489841602993
2025-02-26 16:00:00+00:00,-167.44489841602993
2025-02-26 17:00:00+00:00,-167.44489841602993
2025-02-26 18:00:00+00:00,-167.44489841602993
2025-02-26 19:00:00+00:00,-167.44489841602993
2025-02-26 20:00:00+00:00,-167.44489841602993
2025-02-27 14:00:00+00:00,-167.44489841602993
2025-02-27 15:00:00+00:00,-167.44489841602993
2025-02-27 16:00:00+00:00,-167.44489841602993
2025-02-27 17:00:00+00:00,-167.44489841602993
2025-02-27 18:00:00+00:00,-167.44489841602993
2025-02-27 19:00:00+00:00,-167.44489841602993
2025-02-27 20:00:00+00:00,-167.44489841602993
2025-02-28 14:00:00+00:00,-167.44489841602993
2025-02-28 15:00:00+00:00,-167.44489841602993
2025-02-28 16:00:00+00:00,-167.44489841602993
2025-02-28 17:00:00+00:00,-167.44489841602993
2025-02-28 18:00:00+00:00,-167.44489841602993
2025-02-28 19:00:00+00:00,-167.44489841602993
2025-02-28 20:00:00+00:00,-167.44489841602993
2025-03-03 14:00:00+00:00,-167.44489841602993
2025-03-03 15:00:00+00:00,-167.44489841602993
2025-03-03 16:00:00+00:00,-167.44489841602993
2025-03-03 17:00:00+00:00,-167.44489841602993
2025-03-03 18:00:00+00:00,-167.44489841602993
2025-03-03 19:00:00+00:00,-167.44489841602993
2025-03-03 20:00:00+00:00,-167.44489841602993
2025-03-04 14:00:00+00:00,-167.44489841602993
2025-03-04 15:00:00+00:00,-167.44489841602993
2025-03-04 16:00:00+00:00,-167.44489841602993
2025-03-04 17:00:00+00:00,-167.44489841602993
2025-03-04 18:00:00+00:00,-167.44489841602993
2025-03-04 19:00:00+00:00,-167.44489841602993
2025-03-04 20:00:00+00:00,-167.44489841602993
2025-03-05 14:00:00+00:00,-167.44489841602993
2025-03-05 15:00:00+00:00,-167.44489841602993
2025-03-05 16:00:00+00:00,-167.44489841602993
2025-03-05 17:00:00+00:00,-167.44489841602993
2025-03-05 18:00:00+00:00,-167.44489841602993
2025-03-05 19:00:00+00:00,-167.44489841602993
2025-03-05 20:00:00+00:00,-167.44489841602993
2025-03-06 14:00:00+00:00,-167.44489841602993
2025-03-06 15:00:00+00:00,-167.44489841602993
2025-03-06 16:00:00+00:00,-167.44489841602993
2025-03-06 17:00:00+00:00,-167.44489841602993
2025-03-06 18:00:00+00:00,-167.44489841602993
2025-03-06 19:00:00+00:00,-167.44489841602993
2025-03-06 20:00:00+00:00,-167.44489841602993
2025-03-07 14:00:00+00:00,-167.44489841602993
2025-03-07 15:00:00+00:00,-167.44489841602993
2025-03-07 16:00:00+00:00,-167.44489841602993
2025-03-07 17:00:00+00:00,-167.44489841602993
2025-03-07 18:00:00+00:00,-167.44489841602993
2025-03-07 19:00:00+00:00,-167.44489841602993
2025-03-07 20:00:00+00:00,-167.44489841602993
2025-03-10 13:00:00+00:00,-167.44489841602993
2025-03-10 14:00:00+00:00,-167.44489841602993
2025-03-10 15:00:00+00:00,-167.44489841602993
2025-03-10 16:00:00+00:00,-167.44489841602993
2025-03-10 17:00:00+00:00,-167.44489841602993
2025-03-10 18:00:00+00:00,-167.44489841602993
2025-03-10 19:00:00+00:00,-167.44489841602993
2025-03-11 13:00:00+00:00,-167.44489841602993
2025-03-11 14:00:00+00:00,-167.44489841602993
2025-03-11 15:00:00+00:00,-167.44489841602993
2025-03-11 16:00:00+00:00,-167.44489841602993
2025-03-11 17:00:00+00:00,-167.44489841602993
2025-03-11 18:00:00+00:00,-167.44489841602993
2025-03-11 19:00:00+00:00,-167.44489841602993
2025-03-12 13:00:00+00:00,-167.44489841602993
2025-03-12 14:00:00+00:00,-167.44489841602993
2025-03-12 15:00:00+00:00,-167.44489841602993
2025-03-12 16:00:00+00:00,-167.44489841602993
2025-03-12 17:00:00+00:00,-167.44489841602993
2025-03-12 18:00:00+00:00,-167.44489841602993
2025-03-12 19:00:00+00:00,-167.44489841602993
2025-03-13 13:00:00+00:00,-167.44489841602993
2025-03-13 14:00:00+00:00,-167.44489841602993
2025-03-13 15:00:00+00:00,-167.44489841602993
2025-03-13 16:00:00+00:00,-167.44489841602993
2025-03-13 17:00:00+00:00,-167.44489841602993
2025-03-13 18:00:00+00:00,-167.44489841602993
2025-03-13 19:00:00+00:00,-167.44489841602993
2025-03-14 13:00:00+00:00,-167.44489841602993
2025-03-14 14:00:00+00:00,-167.44489841602993
2025-03-14 15:00:00+00:00,-167.44489841602993
2025-03-14 16:00:00+00:00,-167.44489841602993
2025-03-14 17:00:00+00:00,-167.44489841602993
2025-03-14 18:00:00+00:00,-167.44489841602993
2025-03-14 19:00:00+00:00,-167.44489841602993
2025-03-17 13:00:00+00:00,-230.19841448109722
2025-03-17 14:00:00+00:00,-225.81172017580073
2025-03-17 15:00:00+00:00,-242.74088414528708
2025-03-17 16:00:00+00:00,-259.9632650586379
2025-03-17 17:00:00+00:00,-254.68282182320544
2025-03-17 18:00:00+00:00,-262.0246860896007
2025-03-17 19:00:00+00:00,-249.27014966382328
2025-03-18 13:00:00+00:00,-270.7687061115462
2025-03-18 14:00:00+00:00,-284.5607519286787
2025-03-18 15:00:00+00:00,-292.91261482041574
2025-03-18 16:00:00+00:00,-303.7914663573327
2025-03-18 17:00:00+00:00,-321.15127510448735
2025-03-18 18:00:00+00:00,-346.4679761030524
2025-03-18 19:00:00+00:00,-365.19355649308574
2025-03-19 13:00:00+00:00,-392.1371465959694
2025-03-19 14:00:00+00:00,-404.92736229717593
2025-03-19 15:00:00+00:00,-415.79345061782715
2025-03-19 16:00:00+00:00,-397.2672518005456
2025-03-19 17:00:00+00:00,-409.07161267858953
2025-03-19 18:00:00+00:00,-438.27276034329
2025-03-19 19:00:00+00:00,-442.47906638240914
2025-03-20 13:00:00+00:00,-451.216279821349
2025-03-20 14:00:00+00:00,-444.49659830306285
2025-03-20 15:00:00+00:00,-460.12636426736714
2025-03-20 16:00:00+00:00,-475.2833292085867
2025-03-20 17:00:00+00:00,-488.93319838090775
2025-03-20 18:00:00+00:00,-497.6833704657353
2025-03-20 19:00:00+00:00,-489.35703400652756
2025-03-21 13:00:00+00:00,-502.190255902897
2025-03-21 14:00:00+00:00,-454.567247800301
2025-03-21 15:00:00+00:00,-442.5430830314442
2025-03-21 16:00:00+00:00,-440.4104079374245
2025-03-21 17:00:00+00:00,-442.255266849666
2025-03-21 18:00:00+00:00,-449.94705584170697
2025-03-21 19:00:00+00:00,-463.5820028077686
2025-03-24 13:00:00+00:00,-408.2675353261502
2025-03-24 14:00:00+00:00,-421.91812097220577
2025-03-24 15:00:00+00:00,-419.5937904989304
2025-03-24 16:00:00+00:00,-402.26501086515077
2025-03-24 17:00:00+00:00,-387.69558898495995
2025-03-24 18:00:00+00:00,-403.25367662938896
2025-03-24 19:00:00+00:00,-391.89973603408396
2025-03-25 13:00:00+00:00,-476.7527945547295
2025-03-25 14:00:00+00:00,-433.3327488004025
2025-03-25 15:00:00+00:00,-419.5378894731503
2025-03-25 16:00:00+00:00,-429.4564771420873
2025-03-25 17:00:00+00:00,-418.33732973555345
2025-03-25 18:00:00+00:00,-436.1490632353184
2025-03-25 19:00:00+00:00,-458.73703188920246
2025-03-26 13:00:00+00:00,-488.9764699416462
2025-03-26 14:00:00+00:00,-490.253157593462
2025-03-26 15:00:00+00:00,-474.97207876778646
2025-03-26 16:00:00+00:00,-475.2663307456739
2025-03-26 17:00:00+00:00,-495.8883942676148
2025-03-26 18:00:00+00:00,-513.293702951036
2025-03-26 19:00:00+00:00,-496.038683966636
2025-03-27 13:00:00+00:00,-507.156262380644
2025-03-27 14:00:00+00:00,-501.01110989146423
2025-03-27 15:00:00+00:00,-497.31923821507394
2025-03-27 16:00:00+00:00,-487.0346047078405
2025-03-27 17:00:00+00:00,-483.34207851132606
2025-03-27 18:00:00+00:00,-507.36101758893267
2025-03-27 19:00:00+00:00,-503.51885364447776
2025-03-28 13:00:00+00:00,-511.13182812061785
2025-03-28 14:00:00+00:00,-506.25262301192765
2025-03-28 15:00:00+00:00,-493.89287691971214
2025-03-28 16:00:00+00:00,-485.2847889889643
2025-03-28 17:00:00+00:00,-483.7053655181549
2025-03-28 18:00:00+00:00,-484.41852693351063
2025-03-28 19:00:00+00:00,-485.6325044074967
2025-03-31 13:00:00+00:00,-522.8265532120556
2025-03-31 14:00:00+00:00,-514.6139772266921
2025-03-31 15:00:00+00:00,-513.3683186882513
2025-03-31 16:00:00+00:00,-478.75474974899805
2025-03-31 17:00:00+00:00,-482.6842926469336
2025-03-31 18:00:00+00:00,-479.11858412575225
2025-03-31 19:00:00+00:00,-491.12243115770195
2025-04-01 13:00:00+00:00,-472.8371182075074
2025-04-01 14:00:00+00:00,-503.6881902369971
2025-04-01 15:00:00+00:00,-498.0522345200661
2025-04-01 16:00:00+00:00,-497.8810517068184
2025-04-01 17:00:00+00:00,-485.9574328121723
2025-04-01 18:00:00+00:00,-518.0950105852706
2025-04-01 19:00:00+00:00,-515.9656791821016
2025-04-02 13:00:00+00:00,-456.3343597544298
2025-04-02 14:00:00+00:00,-440.0096221221928
2025-04-02 15:00:00+00:00,-422.9110500377839
2025-04-02 16:00:00+00:00,-417.89123984585217
2025-04-02 17:00:00+00:00,-395.2118940275142
2025-04-02 18:00:00+00:00,-400.2118796817799
2025-04-02 19:00:00+00:00,-410.78254432049664
2025-04-03 13:00:00+00:00,-274.9718715965706
2025-04-03 14:00:00+00:00,-283.98321582148986
2025-04-03 15:00:00+00:00,-259.56623264115836
2025-04-03 16:00:00+00:00,-277.6632627191745
2025-04-03 17:00:00+00:00,-266.65351914626456
2025-04-03 18:00:00+00:00,-262.17301009137896
2025-04-03 19:00:00+00:00,-235.92570334435135
2025-04-04 13:00:00+00:00,-42.44905587407078
2025-04-04 14:00:00+00:00,-57.73889713599249
2025-04-04 15:00:00+00:00,-14.506976777068033
2025-04-04 16:00:00+00:00,-14.506976777068033
2025-04-04 17:00:00+00:00,-14.506976777068033
2025-04-04 18:00:00+00:00,-14.506976777068033
2025-04-04 19:00:00+00:00,-14.506976777068033
2025-04-07 13:00:00+00:00,-14.506976777068033
2025-04-07 14:00:00+00:00,-14.506976777068033
2025-04-07 15:00:00+00:00,-14.506976777068033
2025-04-07 16:00:00+00:00,-14.506976777068033
2025-04-07 17:00:00+00:00,-14.506976777068033
2025-04-07 18:00:00+00:00,-14.506976777068033
2025-04-07 19:00:00+00:00,-14.506976777068033
2025-04-08 13:00:00+00:00,-14.506976777068033
2025-04-08 14:00:00+00:00,-14.506976777068033
2025-04-08 15:00:00+00:00,-14.506976777068033
2025-04-08 16:00:00+00:00,-14.506976777068033
2025-04-08 17:00:00+00:00,-14.506976777068033
2025-04-08 18:00:00+00:00,-14.506976777068033
2025-04-08 19:00:00+00:00,-14.506976777068033
2025-04-09 13:00:00+00:00,-14.506976777068033
2025-04-09 14:00:00+00:00,-14.506976777068033
2025-04-09 15:00:00+00:00,-14.506976777068033
2025-04-09 16:00:00+00:00,-14.506976777068033
2025-04-09 17:00:00+00:00,-14.506976777068033
2025-04-09 18:00:00+00:00,-14.506976777068033
2025-04-09 19:00:00+00:00,-14.506976777068033
2025-04-10 13:00:00+00:00,-14.506976777068033
2025-04-10 14:00:00+00:00,-14.506976777068033
2025-04-10 15:00:00+00:00,-14.506976777068033
2025-04-10 16:00:00+00:00,-14.506976777068033
2025-04-10 17:00:00+00:00,-14.506976777068033
2025-04-10 18:00:00+00:00,-14.506976777068033
2025-04-10 19:00:00+00:00,-14.506976777068033
2025-04-11 13:00:00+00:00,-14.506976777068033
2025-04-11 14:00:00+00:00,-14.506976777068033
2025-04-11 15:00:00+00:00,-14.506976777068033
2025-04-11 16:00:00+00:00,-14.506976777068033
2025-04-11 17:00:00+00:00,-14.506976777068033
2025-04-11 18:00:00+00:00,-14.506976777068033
2025-04-11 19:00:00+00:00,-14.506976777068033
2025-04-14 13:00:00+00:00,-14.506976777068033
2025-04-14 14:00:00+00:00,-14.506976777068033
2025-04-14 15:00:00+00:00,-14.506976777068033
2025-04-14 16:00:00+00:00,-14.506976777068033
2025-04-14 17:00:00+00:00,-14.506976777068033
2025-04-14 18:00:00+00:00,-14.506976777068033
2025-04-14 19:00:00+00:00,-14.506976777068033
2025-04-15 13:00:00+00:00,-14.506976777068033
2025-04-15 14:00:00+00:00,-14.506976777068033
2025-04-15 15:00:00+00:00,-14.506976777068033
2025-04-15 16:00:00+00:00,-14.506976777068033
2025-04-15 17:00:00+00:00,-14.506976777068033
2025-04-15 18:00:00+00:00,-14.506976777068033
2025-04-15 19:00:00+00:00,-14.506976777068033
2025-04-16 13:00:00+00:00,-14.506976777068033
2025-04-16 14:00:00+00:00,-14.506976777068033
2025-04-16 15:00:00+00:00,-14.506976777068033
2025-04-16 16:00:00+00:00,-14.506976777068033
2025-04-16 17:00:00+00:00,-14.506976777068033
2025-04-16 18:00:00+00:00,-14.506976777068033
2025-04-16 19:00:00+00:00,-14.506976777068033
2025-04-17 13:00:00+00:00,-14.506976777068033
2025-04-17 14:00:00+00:00,-14.506976777068033
2025-04-17 15:00:00+00:00,-14.506976777068033
2025-04-17 16:00:00+00:00,-14.506976777068033
2025-04-17 17:00:00+00:00,-14.506976777068033
2025-04-17 18:00:00+00:00,-14.506976777068033
2025-04-17 19:00:00+00:00,-14.506976777068033
2025-04-21 13:00:00+00:00,-14.506976777068033
2025-04-21 14:00:00+00:00,-14.506976777068033
2025-04-21 15:00:00+00:00,-14.506976777068033
2025-04-21 16:00:00+00:00,-14.506976777068033
2025-04-21 17:00:00+00:00,-14.506976777068033
2025-04-21 18:00:00+00:00,-14.506976777068033
2025-04-21 19:00:00+00:00,-14.506976777068033
2025-04-22 13:00:00+00:00,-14.506976777068033
2025-04-22 14:00:00+00:00,-14.506976777068033
2025-04-22 15:00:00+00:00,-14.506976777068033
2025-04-22 16:00:00+00:00,-14.506976777068033
2025-04-22 17:00:00+00:00,-14.506976777068033
2025-04-22 18:00:00+00:00,-14.506976777068033
2025-04-22 19:00:00+00:00,-14.506976777068033
2025-04-23 13:00:00+00:00,-14.506976777068033
2025-04-23 14:00:00+00:00,-14.506976777068033
2025-04-23 15:00:00+00:00,-14.506976777068033
2025-04-23 16:00:00+00:00,-14.506976777068033
2025-04-23 17:00:00+00:00,-14.506976777068033
2025-04-23 18:00:00+00:00,-14.506976777068033
2025-04-23 19:00:00+00:00,-14.506976777068033
2025-04-24 13:00:00+00:00,-14.506976777068033
2025-04-24 14:00:00+00:00,-14.506976777068033
2025-04-24 15:00:00+00:00,-14.506976777068033
2025-04-24 16:00:00+00:00,-14.506976777068033
2025-04-24 17:00:00+00:00,-14.506976777068033
2025-04-24 18:00:00+00:00,-14.506976777068033
2025-04-24 19:00:00+00:00,-14.506976777068033
2025-04-25 13:00:00+00:00,-14.506976777068033
2025-04-25 14:00:00+00:00,-14.506976777068033
2025-04-25 15:00:00+00:00,-14.506976777068033
2025-04-25 16:00:00+00:00,-14.506976777068033
2025-04-25 17:00:00+00:00,-14.506976777068033
2025-04-25 18:00:00+00:00,-14.506976777068033
2025-04-25 19:00:00+00:00,-14.506976777068033
2025-04-28 13:00:00+00:00,-14.506976777068033
2025-04-28 14:00:00+00:00,-14.506976777068033
2025-04-28 15:00:00+00:00,-14.506976777068033
2025-04-28 16:00:00+00:00,-14.506976777068033
2025-04-28 17:00:00+00:00,-14.506976777068033
2025-04-28 18:00:00+00:00,-14.506976777068033
2025-04-28 19:00:00+00:00,-14.506976777068033
2025-04-29 13:00:00+00:00,-14.506976777068033
2025-04-29 14:00:00+00:00,-14.506976777068033
2025-04-29 15:00:00+00:00,-14.506976777068033
2025-04-29 16:00:00+00:00,-14.506976777068033
2025-04-29 17:00:00+00:00,-14.506976777068033
2025-04-29 18:00:00+00:00,-14.506976777068033
2025-04-29 19:00:00+00:00,-14.506976777068033
2025-04-30 13:00:00+00:00,-14.506976777068033
2025-04-30 14:00:00+00:00,-14.506976777068033
2025-04-30 15:00:00+00:00,-14.506976777068033
2025-04-30 16:00:00+00:00,-14.506976777068033
2025-04-30 17:00:00+00:00,-14.506976777068033
2025-04-30 18:00:00+00:00,-14.506976777068033
2025-04-30 19:00:00+00:00,-14.506976777068033
2025-05-01 13:00:00+00:00,-14.506976777068033
2025-05-01 14:00:00+00:00,-14.506976777068033
2025-05-01 15:00:00+00:00,-14.506976777068033
2025-05-01 16:00:00+00:00,-14.506976777068033
2025-05-01 17:00:00+00:00,-14.506976777068033
2025-05-01 18:00:00+00:00,-14.506976777068033
2025-05-01 19:00:00+00:00,-14.506976777068033
2025-05-02 13:00:00+00:00,-14.506976777068033
2025-05-02 14:00:00+00:00,-14.506976777068033
2025-05-02 15:00:00+00:00,-14.506976777068033
2025-05-02 16:00:00+00:00,-14.506976777068033
2025-05-02 17:00:00+00:00,-14.506976777068033
2025-05-02 18:00:00+00:00,-14.506976777068033
2025-05-02 19:00:00+00:00,-14.506976777068033
2025-05-05 13:00:00+00:00,-14.506976777068033
2025-05-05 14:00:00+00:00,-14.506976777068033
2025-05-05 15:00:00+00:00,-14.506976777068033
2025-05-05 16:00:00+00:00,-14.506976777068033
2025-05-05 17:00:00+00:00,-14.506976777068033
2025-05-05 18:00:00+00:00,-14.506976777068033
2025-05-05 19:00:00+00:00,-14.506976777068033
2025-05-06 13:00:00+00:00,-14.506976777068033
2025-05-06 14:00:00+00:00,-14.506976777068033
2025-05-06 15:00:00+00:00,-14.506976777068033
2025-05-06 16:00:00+00:00,-14.506976777068033
2025-05-06 17:00:00+00:00,-14.506976777068033
2025-05-06 18:00:00+00:00,-14.506976777068033
2025-05-06 19:00:00+00:00,-14.506976777068033
2025-05-07 13:00:00+00:00,-14.506976777068033
2025-05-07 14:00:00+00:00,-14.506976777068033
2025-05-07 15:00:00+00:00,-14.506976777068033
2025-05-07 16:00:00+00:00,-14.506976777068033
2025-05-07 17:00:00+00:00,-14.506976777068033
2025-05-07 18:00:00+00:00,-14.506976777068033
2025-05-07 19:00:00+00:00,-14.506976777068033
2025-05-08 13:00:00+00:00,-14.506976777068033
2025-05-08 14:00:00+00:00,-14.506976777068033
2025-05-08 15:00:00+00:00,-14.506976777068033
2025-05-08 16:00:00+00:00,-14.506976777068033
2025-05-08 17:00:00+00:00,-14.506976777068033
2025-05-08 18:00:00+00:00,-14.506976777068033
2025-05-08 19:00:00+00:00,-14.506976777068033
2025-05-09 13:00:00+00:00,-14.506976777068033
2025-05-09 14:00:00+00:00,-14.506976777068033
2025-05-09 15:00:00+00:00,-14.506976777068033
2025-05-09 16:00:00+00:00,-14.506976777068033
2025-05-09 17:00:00+00:00,-14.506976777068033
2025-05-09 18:00:00+00:00,-14.506976777068033
2025-05-09 19:00:00+00:00,-14.506976777068033
2025-05-12 13:00:00+00:00,-14.506976777068033
2025-05-12 14:00:00+00:00,-14.506976777068033
2025-05-12 15:00:00+00:00,-14.506976777068033
2025-05-12 16:00:00+00:00,-14.506976777068033
2025-05-12 17:00:00+00:00,-14.506976777068033
2025-05-12 18:00:00+00:00,-14.506976777068033
2025-05-12 19:00:00+00:00,-14.506976777068033
2025-05-13 13:00:00+00:00,-14.506976777068033
2025-05-13 14:00:00+00:00,-14.506976777068033
2025-05-13 15:00:00+00:00,-14.506976777068033
2025-05-13 16:00:00+00:00,-14.506976777068033
2025-05-13 17:00:00+00:00,-14.506976777068033
2025-05-13 18:00:00+00:00,-14.506976777068033
2025-05-13 19:00:00+00:00,-14.506976777068033
2025-05-14 13:00:00+00:00,-14.506976777068033
2025-05-14 14:00:00+00:00,-14.506976777068033
2025-05-14 15:00:00+00:00,-14.506976777068033
2025-05-14 16:00:00+00:00,-14.506976777068033
2025-05-14 17:00:00+00:00,-14.506976777068033
2025-05-14 18:00:00+00:00,-14.506976777068033
2025-05-14 19:00:00+00:00,-14.506976777068033
2025-05-15 13:00:00+00:00,-14.506976777068033
2025-05-15 14:00:00+00:00,-14.506976777068033
2025-05-15 15:00:00+00:00,-14.506976777068033
2025-05-15 16:00:00+00:00,-14.506976777068033
2025-05-15 17:00:00+00:00,-14.506976777068033
2025-05-15 18:00:00+00:00,-14.506976777068033
2025-05-15 19:00:00+00:00,-14.506976777068033
2025-05-16 13:00:00+00:00,-14.506976777068033
2025-05-16 14:00:00+00:00,-14.506976777068033
2025-05-16 15:00:00+00:00,-14.506976777068033
2025-05-16 16:00:00+00:00,-14.506976777068033
2025-05-16 17:00:00+00:00,-14.506976777068033
2025-05-16 18:00:00+00:00,-14.506976777068033
2025-05-16 19:00:00+00:00,-14.506976777068033
2025-05-19 13:00:00+00:00,-14.506976777068033
2025-05-19 14:00:00+00:00,-14.506976777068033
2025-05-19 15:00:00+00:00,-14.506976777068033
2025-05-19 16:00:00+00:00,-14.506976777068033
2025-05-19 17:00:00+00:00,-14.506976777068033
2025-05-19 18:00:00+00:00,-14.506976777068033
2025-05-19 19:00:00+00:00,-14.506976777068033
2025-05-20 13:00:00+00:00,-14.506976777068033
2025-05-20 14:00:00+00:00,-14.506976777068033
2025-05-20 15:00:00+00:00,-14.506976777068033
2025-05-20 16:00:00+00:00,-14.506976777068033
2025-05-20 17:00:00+00:00,-14.506976777068033
2025-05-20 18:00:00+00:00,-14.506976777068033
2025-05-20 19:00:00+00:00,-14.506976777068033
2025-05-21 13:00:00+00:00,-14.506976777068033
2025-05-21 14:00:00+00:00,-14.506976777068033
2025-05-21 15:00:00+00:00,-14.506976777068033
2025-05-21 16:00:00+00:00,-14.506976777068033
2025-05-21 17:00:00+00:00,-14.506976777068033
2025-05-21 18:00:00+00:00,-14.506976777068033
2025-05-21 19:00:00+00:00,-14.506976777068033
2025-05-22 13:00:00+00:00,-14.506976777068033
2025-05-22 14:00:00+00:00,-14.506976777068033
2025-05-22 15:00:00+00:00,-14.506976777068033
2025-05-22 16:00:00+00:00,-14.506976777068033
2025-05-22 17:00:00+00:00,-14.506976777068033
2025-05-22 18:00:00+00:00,-14.506976777068033
2025-05-22 19:00:00+00:00,-14.506976777068033
2025-05-23 13:00:00+00:00,-14.506976777068033
2025-05-23 14:00:00+00:00,-14.506976777068033
2025-05-23 15:00:00+00:00,-14.506976777068033
2025-05-23 16:00:00+00:00,-14.506976777068033
2025-05-23 17:00:00+00:00,-14.506976777068033
2025-05-23 18:00:00+00:00,-14.506976777068033
2025-05-23 19:00:00+00:00,-14.506976777068033
2025-05-27 13:00:00+00:00,-14.506976777068033
2025-05-27 14:00:00+00:00,-14.506976777068033
2025-05-27 15:00:00+00:00,-14.506976777068033
2025-05-27 16:00:00+00:00,-14.506976777068033
2025-05-27 17:00:00+00:00,-14.506976777068033
2025-05-27 18:00:00+00:00,-14.506976777068033
2025-05-27 19:00:00+00:00,-14.506976777068033
2025-05-28 13:00:00+00:00,-14.506976777068033
2025-05-28 14:00:00+00:00,-14.506976777068033
2025-05-28 15:00:00+00:00,-14.506976777068033
2025-05-28 16:00:00+00:00,-14.506976777068033
2025-05-28 17:00:00+00:00,-14.506976777068033
2025-05-28 18:00:00+00:00,-14.506976777068033
2025-05-28 19:00:00+00:00,-14.506976777068033
2025-05-29 13:00:00+00:00,-14.506976777068033
2025-05-29 14:00:00+00:00,-14.506976777068033
2025-05-29 15:00:00+00:00,-14.506976777068033
2025-05-29 16:00:00+00:00,-14.506976777068033
2025-05-29 17:00:00+00:00,-14.506976777068033
2025-05-29 18:00:00+00:00,-14.506976777068033
2025-05-29 19:00:00+00:00,-14.506976777068033
2025-05-30 13:00:00+00:00,-14.506976777068033
2025-05-30 14:00:00+00:00,-14.506976777068033
2025-05-30 15:00:00+00:00,-14.506976777068033
2025-05-30 16:00:00+00:00,-14.506976777068033
2025-05-30 17:00:00+00:00,-14.506976777068033
2025-05-30 18:00:00+00:00,-14.506976777068033
2025-05-30 19:00:00+00:00,-14.506976777068033
2025-06-02 13:00:00+00:00,-14.506976777068033
2025-06-02 14:00:00+00:00,-14.506976777068033
2025-06-02 15:00:00+00:00,-14.506976777068033
2025-06-02 16:00:00+00:00,-14.506976777068033
2025-06-02 17:00:00+00:00,-14.506976777068033
2025-06-02 18:00:00+00:00,-14.506976777068033
2025-06-02 19:00:00+00:00,-14.506976777068033
2025-06-03 13:00:00+00:00,-14.506976777068033
2025-06-03 14:00:00+00:00,-14.506976777068033
2025-06-03 15:00:00+00:00,-14.506976777068033
2025-06-03 16:00:00+00:00,-14.506976777068033
2025-06-03 17:00:00+00:00,-14.506976777068033
2025-06-03 18:00:00+00:00,-14.506976777068033
2025-06-03 19:00:00+00:00,-14.506976777068033
2025-06-04 13:00:00+00:00,-14.506976777068033
2025-06-04 14:00:00+00:00,-14.506976777068033
2025-06-04 15:00:00+00:00,-14.506976777068033
2025-06-04 16:00:00+00:00,-14.506976777068033
2025-06-04 17:00:00+00:00,-14.506976777068033
2025-06-04 18:00:00+00:00,-14.506976777068033
2025-06-04 19:00:00+00:00,-14.506976777068033
2025-06-05 13:00:00+00:00,-14.506976777068033
2025-06-05 14:00:00+00:00,-14.506976777068033
2025-06-05 15:00:00+00:00,-14.506976777068033
2025-06-05 16:00:00+00:00,-14.506976777068033
2025-06-05 17:00:00+00:00,-14.506976777068033
2025-06-05 18:00:00+00:00,-14.506976777068033
2025-06-05 19:00:00+00:00,-14.506976777068033
2025-06-06 13:00:00+00:00,-14.506976777068033
2025-06-06 14:00:00+00:00,-14.506976777068033
2025-06-06 15:00:00+00:00,-14.506976777068033
2025-06-06 16:00:00+00:00,-14.506976777068033
2025-06-06 17:00:00+00:00,-14.506976777068033
2025-06-06 18:00:00+00:00,-14.506976777068033
2025-06-06 19:00:00+00:00,-14.506976777068033
2025-06-09 13:00:00+00:00,-14.506976777068033
2025-06-09 14:00:00+00:00,-14.506976777068033
2025-06-09 15:00:00+00:00,-14.506976777068033
2025-06-09 16:00:00+00:00,-14.506976777068033
2025-06-09 17:00:00+00:00,-14.506976777068033
2025-06-09 18:00:00+00:00,-14.506976777068033
2025-06-09 19:00:00+00:00,-14.506976777068033
2025-06-10 13:00:00+00:00,-14.506976777068033
2025-06-10 14:00:00+00:00,-14.506976777068033
2025-06-10 15:00:00+00:00,-14.506976777068033
2025-06-10 16:00:00+00:00,-14.506976777068033
2025-06-10 17:00:00+00:00,-14.506976777068033
2025-06-10 18:00:00+00:00,-14.506976777068033
2025-06-10 19:00:00+00:00,-14.506976777068033
2025-06-11 13:00:00+00:00,-14.506976777068033
2025-06-11 14:00:00+00:00,-14.506976777068033
2025-06-11 15:00:00+00:00,-14.506976777068033
2025-06-11 16:00:00+00:00,-14.506976777068033
2025-06-11 17:00:00+00:00,-14.506976777068033
2025-06-11 18:00:00+00:00,-14.506976777068033
2025-06-11 19:00:00+00:00,-14.506976777068033
2025-06-12 13:00:00+00:00,-14.506976777068033
2025-06-12 14:00:00+00:00,-14.506976777068033
2025-06-12 15:00:00+00:00,-14.506976777068033
2025-06-12 16:00:00+00:00,-14.506976777068033
2025-06-12 17:00:00+00:00,-14.506976777068033
2025-06-12 18:00:00+00:00,-14.506976777068033
2025-06-12 19:00:00+00:00,-14.506976777068033
2025-06-13 13:00:00+00:00,-14.506976777068033
2025-06-13 14:00:00+00:00,-14.506976777068033
2025-06-13 15:00:00+00:00,-14.506976777068033
2025-06-13 16:00:00+00:00,-14.506976777068033
2025-06-13 17:00:00+00:00,-14.506976777068033
2025-06-13 18:00:00+00:00,-14.506976777068033
2025-06-13 19:00:00+00:00,-14.506976777068033
2025-06-16 13:00:00+00:00,-14.506976777068033
2025-06-16 14:00:00+00:00,-14.506976777068033
2025-06-16 15:00:00+00:00,-14.506976777068033
2025-06-16 16:00:00+00:00,-14.506976777068033
2025-06-16 17:00:00+00:00,-14.506976777068033
2025-06-16 18:00:00+00:00,-14.506976777068033
2025-06-16 19:00:00+00:00,-14.506976777068033
2025-06-17 13:00:00+00:00,-14.506976777068033
2025-06-17 14:00:00+00:00,-14.506976777068033
2025-06-17 15:00:00+00:00,-14.506976777068033
2025-06-17 16:00:00+00:00,-14.506976777068033
2025-06-17 17:00:00+00:00,-14.506976777068033
2025-06-17 18:00:00+00:00,-14.506976777068033
2025-06-17 19:00:00+00:00,-14.506976777068033
2025-06-18 13:00:00+00:00,-14.506976777068033
2025-06-18 14:00:00+00:00,-14.506976777068033
2025-06-18 15:00:00+00:00,-14.506976777068033
2025-06-18 16:00:00+00:00,-14.506976777068033
2025-06-18 17:00:00+00:00,-14.506976777068033
2025-06-18 18:00:00+00:00,-14.506976777068033
2025-06-18 19:00:00+00:00,-14.506976777068033
2025-06-20 13:00:00+00:00,-14.506976777068033
2025-06-20 14:00:00+00:00,-14.506976777068033
2025-06-20 15:00:00+00:00,-14.506976777068033
2025-06-20 16:00:00+00:00,-14.506976777068033
2025-06-20 17:00:00+00:00,-14.506976777068033
2025-06-20 18:00:00+00:00,-14.506976777068033
2025-06-20 19:00:00+00:00,-14.506976777068033
2025-06-23 13:00:00+00:00,-14.506976777068033
2025-06-23 14:00:00+00:00,-14.506976777068033
2025-06-23 15:00:00+00:00,-14.506976777068033
2025-06-23 16:00:00+00:00,-14.506976777068033
2025-06-23 17:00:00+00:00,-14.506976777068033
2025-06-23 18:00:00+00:00,-14.506976777068033
2025-06-23 19:00:00+00:00,-14.506976777068033
2025-06-24 13:00:00+00:00,-14.506976777068033
2025-06-24 14:00:00+00:00,-14.506976777068033
2025-06-24 15:00:00+00:00,-14.506976777068033
2025-06-24 16:00:00+00:00,-14.506976777068033
2025-06-24 17:00:00+00:00,-14.506976777068033
2025-06-24 18:00:00+00:00,-14.506976777068033
2025-06-24 19:00:00+00:00,-14.506976777068033
2025-06-25 13:00:00+00:00,-14.506976777068033
2025-06-25 14:00:00+00:00,-14.506976777068033
2025-06-25 15:00:00+00:00,-14.506976777068033
2025-06-25 16:00:00+00:00,-14.506976777068033
2025-06-25 17:00:00+00:00,-14.506976777068033
2025-06-25 18:00:00+00:00,-14.506976777068033
2025-06-25 19:00:00+00:00,-14.506976777068033
2025-06-26 13:00:00+00:00,-14.506976777068033
2025-06-26 14:00:00+00:00,-14.506976777068033
2025-06-26 15:00:00+00:00,-14.506976777068033
2025-06-26 16:00:00+00:00,-14.506976777068033
2025-06-26 17:00:00+00:00,-14.506976777068033
2025-06-26 18:00:00+00:00,-14.506976777068033
2025-06-26 19:00:00+00:00,-14.506976777068033
2025-06-27 13:00:00+00:00,-14.506976777068033
2025-06-27 14:00:00+00:00,-14.506976777068033
2025-06-27 15:00:00+00:00,-14.506976777068033
2025-06-27 16:00:00+00:00,-14.506976777068033
2025-06-27 17:00:00+00:00,-14.506976777068033
2025-06-27 18:00:00+00:00,-14.506976777068033
2025-06-27 19:00:00+00:00,-14.506976777068033
2025-06-30 13:00:00+00:00,-14.506976777068033
2025-06-30 14:00:00+00:00,-14.506976777068033
2025-06-30 15:00:00+00:00,-14.506976777068033
2025-06-30 16:00:00+00:00,-14.506976777068033
2025-06-30 17:00:00+00:00,-14.506976777068033
2025-06-30 18:00:00+00:00,-14.506976777068033
2025-06-30 19:00:00+00:00,-14.506976777068033
2025-07-01 13:00:00+00:00,-14.506976777068033
2025-07-01 14:00:00+00:00,-14.506976777068033
2025-07-01 15:00:00+00:00,-14.506976777068033
2025-07-01 16:00:00+00:00,-14.506976777068033
2025-07-01 17:00:00+00:00,-14.506976777068033
2025-07-01 18:00:00+00:00,-14.506976777068033
2025-07-01 19:00:00+00:00,-14.506976777068033
2025-07-02 13:00:00+00:00,-14.506976777068033
2025-07-02 14:00:00+00:00,-14.506976777068033
2025-07-02 15:00:00+00:00,-14.506976777068033
2025-07-02 16:00:00+00:00,-14.506976777068033
2025-07-02 17:00:00+00:00,-14.506976777068033
2025-07-02 18:00:00+00:00,-14.506976777068033
2025-07-02 19:00:00+00:00,-14.506976777068033
2025-07-03 13:00:00+00:00,-14.506976777068033
2025-07-03 14:00:00+00:00,-14.506976777068033
2025-07-03 15:00:00+00:00,-14.506976777068033
2025-07-07 13:00:00+00:00,-14.506976777068033
2025-07-07 14:00:00+00:00,-14.506976777068033
2025-07-07 15:00:00+00:00,-14.506976777068033
2025-07-07 16:00:00+00:00,-14.506976777068033
2025-07-07 17:00:00+00:00,-14.506976777068033
2025-07-07 18:00:00+00:00,-14.506976777068033
2025-07-07 19:00:00+00:00,-14.506976777068033
2025-07-08 13:00:00+00:00,-14.506976777068033
2025-07-08 14:00:00+00:00,-14.506976777068033
2025-07-08 15:00:00+00:00,-14.506976777068033
2025-07-08 16:00:00+00:00,-14.506976777068033
2025-07-08 17:00:00+00:00,-14.506976777068033
2025-07-08 18:00:00+00:00,-14.506976777068033
2025-07-08 19:00:00+00:00,-14.506976777068033
2025-07-09 13:00:00+00:00,-14.506976777068033
2025-07-09 14:00:00+00:00,-14.506976777068033
2025-07-09 15:00:00+00:00,-14.506976777068033
2025-07-09 16:00:00+00:00,-14.506976777068033
2025-07-09 17:00:00+00:00,-14.506976777068033
2025-07-09 18:00:00+00:00,-14.506976777068033
2025-07-09 19:00:00+00:00,-14.506976777068033
2025-07-10 13:00:00+00:00,-14.506976777068033
2025-07-10 14:00:00+00:00,-14.506976777068033
2025-07-10 15:00:00+00:00,-14.506976777068033
2025-07-10 16:00:00+00:00,-14.506976777068033
2025-07-10 17:00:00+00:00,-14.506976777068033
2025-07-10 18:00:00+00:00,-14.506976777068033
2025-07-10 19:00:00+00:00,-14.506976777068033
2025-07-11 13:00:00+00:00,-14.506976777068033
2025-07-11 14:00:00+00:00,-14.506976777068033
2025-07-11 15:00:00+00:00,-14.506976777068033
2025-07-11 16:00:00+00:00,-14.506976777068033
2025-07-11 17:00:00+00:00,-14.506976777068033
2025-07-11 18:00:00+00:00,-14.506976777068033
2025-07-11 19:00:00+00:00,-14.506976777068033
2025-07-14 13:00:00+00:00,-14.506976777068033
2025-07-14 14:00:00+00:00,-14.506976777068033
2025-07-14 15:00:00+00:00,-14.506976777068033
2025-07-14 16:00:00+00:00,-14.506976777068033
2025-07-14 17:00:00+00:00,-14.506976777068033
2025-07-14 18:00:00+00:00,-14.506976777068033
2025-07-14 19:00:00+00:00,-14.506976777068033
2025-07-15 13:00:00+00:00,-14.506976777068033
2025-07-15 14:00:00+00:00,-14.506976777068033
2025-07-15 15:00:00+00:00,-14.506976777068033
2025-07-15 16:00:00+00:00,-14.506976777068033
2025-07-15 17:00:00+00:00,-14.506976777068033
2025-07-15 18:00:00+00:00,-14.506976777068033
2025-07-15 19:00:00+00:00,-14.506976777068033
2025-07-16 13:00:00+00:00,-14.506976777068033
2025-07-16 14:00:00+00:00,-14.506976777068033
2025-07-16 15:00:00+00:00,-14.506976777068033
2025-07-16 16:00:00+00:00,-14.506976777068033
2025-07-16 17:00:00+00:00,-14.506976777068033
2025-07-16 18:00:00+00:00,-14.506976777068033
2025-07-16 19:00:00+00:00,-14.506976777068033
2025-07-17 13:00:00+00:00,-14.506976777068033
2025-07-17 14:00:00+00:00,-14.506976777068033
2025-07-17 15:00:00+00:00,-14.506976777068033
2025-07-17 16:00:00+00:00,-14.506976777068033
2025-07-17 17:00:00+00:00,-14.506976777068033
2025-07-17 18:00:00+00:00,-14.506976777068033
2025-07-17 19:00:00+00:00,-14.506976777068033
2025-07-18 13:00:00+00:00,-14.506976777068033
2025-07-18 14:00:00+00:00,-14.506976777068033
2025-07-18 15:00:00+00:00,-14.506976777068033
2025-07-18 16:00:00+00:00,-14.506976777068033
2025-07-18 17:00:00+00:00,-14.506976777068033
2025-07-18 18:00:00+00:00,-14.506976777068033
2025-07-18 19:00:00+00:00,-14.506976777068033
2025-07-21 13:00:00+00:00,-14.506976777068033
2025-07-21 14:00:00+00:00,-14.506976777068033
2025-07-21 15:00:00+00:00,-14.506976777068033
2025-07-21 16:00:00+00:00,-14.506976777068033
2025-07-21 17:00:00+00:00,-14.506976777068033
2025-07-21 18:00:00+00:00,-14.506976777068033
2025-07-21 19:00:00+00:00,-14.506976777068033
2025-07-22 13:00:00+00:00,-14.506976777068033
2025-07-22 14:00:00+00:00,-14.506976777068033
2025-07-22 15:00:00+00:00,-14.506976777068033
2025-07-22 16:00:00+00:00,-14.506976777068033
2025-07-22 17:00:00+00:00,-14.506976777068033
2025-07-22 18:00:00+00:00,-14.506976777068033
2025-07-22 19:00:00+00:00,-14.506976777068033
2025-07-23 13:00:00+00:00,-14.506976777068033
2025-07-23 14:00:00+00:00,-14.506976777068033
2025-07-23 15:00:00+00:00,-14.506976777068033
2025-07-23 16:00:00+00:00,-14.506976777068033
2025-07-23 17:00:00+00:00,-14.506976777068033
2025-07-23 18:00:00+00:00,-14.506976777068033
2025-07-23 19:00:00+00:00,-14.506976777068033
2025-07-24 13:00:00+00:00,-14.506976777068033
2025-07-24 14:00:00+00:00,-14.506976777068033
2025-07-24 15:00:00+00:00,-14.506976777068033
2025-07-24 16:00:00+00:00,-14.506976777068033
2025-07-24 17:00:00+00:00,-14.506976777068033
2025-07-24 18:00:00+00:00,-14.506976777068033
2025-07-24 19:00:00+00:00,-14.506976777068033
2025-07-25 13:00:00+00:00,-14.506976777068033
2025-07-25 14:00:00+00:00,-14.506976777068033
2025-07-25 15:00:00+00:00,-14.506976777068033
2025-07-25 16:00:00+00:00,-14.506976777068033
2025-07-25 17:00:00+00:00,-14.506976777068033
2025-07-25 18:00:00+00:00,-14.506976777068033
2025-07-25 19:00:00+00:00,-14.506976777068033
2025-07-28 13:00:00+00:00,-14.506976777068033
2025-07-28 14:00:00+00:00,-14.506976777068033
2025-07-28 15:00:00+00:00,-14.506976777068033
2025-07-28 16:00:00+00:00,-14.506976777068033
2025-07-28 17:00:00+00:00,-14.506976777068033
2025-07-28 18:00:00+00:00,-14.506976777068033
2025-07-28 19:00:00+00:00,-14.506976777068033
2025-07-29 13:00:00+00:00,-14.506976777068033
2025-07-29 14:00:00+00:00,-14.506976777068033
2025-07-29 15:00:00+00:00,-14.506976777068033
2025-07-29 16:00:00+00:00,-14.506976777068033
2025-07-29 17:00:00+00:00,-14.506976777068033
2025-07-29 18:00:00+00:00,-14.506976777068033
2025-07-29 19:00:00+00:00,-14.506976777068033
2025-07-30 13:00:00+00:00,-14.506976777068033
2025-07-30 14:00:00+00:00,-14.506976777068033
2025-07-30 15:00:00+00:00,-14.506976777068033
2025-07-30 16:00:00+00:00,-14.506976777068033
2025-07-30 17:00:00+00:00,-14.506976777068033
2025-07-30 18:00:00+00:00,-14.506976777068033
2025-07-30 19:00:00+00:00,-14.506976777068033
2025-07-31 13:00:00+00:00,-14.506976777068033
2025-07-31 14:00:00+00:00,-14.506976777068033
2025-07-31 15:00:00+00:00,-14.506976777068033
2025-07-31 16:00:00+00:00,-14.506976777068033
2025-07-31 17:00:00+00:00,-14.506976777068033
2025-07-31 18:00:00+00:00,-14.506976777068033
2025-07-31 19:00:00+00:00,-14.506976777068033
2025-08-01 13:00:00+00:00,-14.506976777068033
2025-08-01 14:00:00+00:00,-14.506976777068033
2025-08-01 15:00:00+00:00,-14.506976777068033
2025-08-01 16:00:00+00:00,-14.506976777068033
2025-08-01 17:00:00+00:00,-14.506976777068033
2025-08-01 18:00:00+00:00,-14.506976777068033
2025-08-01 19:00:00+00:00,-14.506976777068033
2025-08-04 13:00:00+00:00,-14.506976777068033
2025-08-04 14:00:00+00:00,-14.506976777068033
2025-08-04 15:00:00+00:00,-14.506976777068033
2025-08-04 16:00:00+00:00,-14.506976777068033
2025-08-04 17:00:00+00:00,-14.506976777068033
2025-08-04 18:00:00+00:00,-14.506976777068033
2025-08-04 19:00:00+00:00,-14.506976777068033
2025-08-05 13:00:00+00:00,-14.506976777068033
2025-08-05 14:00:00+00:00,-14.506976777068033
2025-08-05 15:00:00+00:00,-14.506976777068033
2025-08-05 16:00:00+00:00,-14.506976777068033
2025-08-05 17:00:00+00:00,-14.506976777068033
2025-08-05 18:00:00+00:00,-14.506976777068033
2025-08-05 19:00:00+00:00,-14.506976777068033
2025-08-06 13:00:00+00:00,-14.506976777068033
2025-08-06 14:00:00+00:00,-14.506976777068033
2025-08-06 15:00:00+00:00,-14.506976777068033
2025-08-06 16:00:00+00:00,-14.506976777068033
2025-08-06 17:00:00+00:00,-14.506976777068033
2025-08-06 18:00:00+00:00,-14.506976777068033
2025-08-06 19:00:00+00:00,-14.506976777068033
2025-08-07 13:00:00+00:00,-14.506976777068033
2025-08-07 14:00:00+00:00,-14.506976777068033
2025-08-07 15:00:00+00:00,-14.506976777068033
2025-08-07 16:00:00+00:00,-14.506976777068033
2025-08-07 17:00:00+00:00,-14.506976777068033
2025-08-07 18:00:00+00:00,-14.506976777068033
2025-08-07 19:00:00+00:00,-14.506976777068033
2025-08-08 13:00:00+00:00,-14.506976777068033
2025-08-08 14:00:00+00:00,-14.506976777068033
2025-08-08 15:00:00+00:00,-14.506976777068033
2025-08-08 16:00:00+00:00,-14.506976777068033
2025-08-08 17:00:00+00:00,-14.506976777068033
2025-08-08 18:00:00+00:00,-14.506976777068033
2025-08-08 19:00:00+00:00,-14.506976777068033
2025-08-11 13:00:00+00:00,-14.506976777068033
2025-08-11 14:00:00+00:00,-14.506976777068033
2025-08-11 15:00:00+00:00,-14.506976777068033
2025-08-11 16:00:00+00:00,-14.506976777068033
2025-08-11 17:00:00+00:00,-14.506976777068033
2025-08-11 18:00:00+00:00,-14.506976777068033
2025-08-11 19:00:00+00:00,-14.506976777068033
2025-08-12 13:00:00+00:00,-14.506976777068033
2025-08-12 14:00:00+00:00,-14.506976777068033
2025-08-12 15:00:00+00:00,-14.506976777068033
2025-08-12 16:00:00+00:00,-14.506976777068033
2025-08-12 17:00:00+00:00,-14.506976777068033
2025-08-12 18:00:00+00:00,-14.506976777068033
2025-08-12 19:00:00+00:00,-14.506976777068033
2025-08-13 13:00:00+00:00,-14.506976777068033
2025-08-13 14:00:00+00:00,-14.506976777068033
2025-08-13 15:00:00+00:00,-14.506976777068033
2025-08-13 16:00:00+00:00,-14.506976777068033
2025-08-13 17:00:00+00:00,-14.506976777068033
2025-08-13 18:00:00+00:00,-14.506976777068033
2025-08-13 19:00:00+00:00,-14.506976777068033
2025-08-14 13:00:00+00:00,-14.506976777068033
2025-08-14 14:00:00+00:00,-14.506976777068033
2025-08-14 15:00:00+00:00,-14.506976777068033
2025-08-14 16:00:00+00:00,-14.506976777068033
2025-08-14 17:00:00+00:00,-14.506976777068033
2025-08-14 18:00:00+00:00,-14.506976777068033
2025-08-14 19:00:00+00:00,-14.506976777068033
2025-08-15 13:00:00+00:00,-14.506976777068033
2025-08-15 14:00:00+00:00,-14.506976777068033
2025-08-15 15:00:00+00:00,-14.506976777068033
2025-08-15 16:00:00+00:00,-14.506976777068033
2025-08-15 17:00:00+00:00,-14.506976777068033
2025-08-15 18:00:00+00:00,-14.506976777068033
2025-08-15 19:00:00+00:00,-14.506976777068033
2025-08-18 13:00:00+00:00,-14.506976777068033
2025-08-18 14:00:00+00:00,-14.506976777068033
2025-08-18 15:00:00+00:00,-14.506976777068033
2025-08-18 16:00:00+00:00,-14.506976777068033
2025-08-18 17:00:00+00:00,-14.506976777068033
2025-08-18 18:00:00+00:00,-14.506976777068033
2025-08-18 19:00:00+00:00,-14.506976777068033
2025-08-19 13:00:00+00:00,-14.506976777068033
2025-08-19 14:00:00+00:00,-14.506976777068033
2025-08-19 15:00:00+00:00,-14.506976777068033
2025-08-19 16:00:00+00:00,-14.506976777068033
2025-08-19 17:00:00+00:00,-14.506976777068033
2025-08-19 18:00:00+00:00,-14.506976777068033
2025-08-19 19:00:00+00:00,-14.506976777068033
2025-08-20 13:00:00+00:00,-14.506976777068033
2025-08-20 14:00:00+00:00,-14.506976777068033
2025-08-20 15:00:00+00:00,-14.506976777068033
2025-08-20 16:00:00+00:00,-14.506976777068033
2025-08-20 17:00:00+00:00,-14.506976777068033
2025-08-20 18:00:00+00:00,-14.506976777068033
2025-08-20 19:00:00+00:00,-14.506976777068033
2025-08-21 13:00:00+00:00,-14.506976777068033
2025-08-21 14:00:00+00:00,-14.506976777068033
2025-08-21 15:00:00+00:00,-14.506976777068033
2025-08-21 16:00:00+00:00,-14.506976777068033
2025-08-21 17:00:00+00:00,-14.506976777068033
2025-08-21 18:00:00+00:00,-14.506976777068033
2025-08-21 19:00:00+00:00,-14.506976777068033
2025-08-22 13:00:00+00:00,-14.506976777068033
2025-08-22 14:00:00+00:00,-14.506976777068033
2025-08-22 15:00:00+00:00,-14.506976777068033
2025-08-22 16:00:00+00:00,-14.506976777068033
2025-08-22 17:00:00+00:00,-14.506976777068033
2025-08-22 18:00:00+00:00,-14.506976777068033
2025-08-22 19:00:00+00:00,-14.506976777068033
2025-08-25 13:00:00+00:00,-14.506976777068033
2025-08-25 14:00:00+00:00,-14.506976777068033
2025-08-25 15:00:00+00:00,-14.506976777068033
2025-08-25 16:00:00+00:00,-14.506976777068033
2025-08-25 17:00:00+00:00,-14.506976777068033
2025-08-25 18:00:00+00:00,-14.506976777068033
2025-08-25 19:00:00+00:00,-14.506976777068033
2025-08-26 13:00:00+00:00,-14.506976777068033
2025-08-26 14:00:00+00:00,-14.506976777068033
2025-08-26 15:00:00+00:00,-14.506976777068033
2025-08-26 16:00:00+00:00,-14.506976777068033
2025-08-26 17:00:00+00:00,-14.506976777068033
2025-08-26 18:00:00+00:00,-14.506976777068033
2025-08-26 19:00:00+00:00,-14.506976777068033
2025-08-27 13:00:00+00:00,-14.506976777068033
2025-08-27 14:00:00+00:00,-14.506976777068033
2025-08-27 15:00:00+00:00,-14.506976777068033
2025-08-27 16:00:00+00:00,-14.506976777068033
2025-08-27 17:00:00+00:00,-14.506976777068033
2025-08-27 18:00:00+00:00,-14.506976777068033
2025-08-27 19:00:00+00:00,-14.506976777068033
2025-08-28 13:00:00+00:00,-14.506976777068033
2025-08-28 14:00:00+00:00,-14.506976777068033
2025-08-28 15:00:00+00:00,-14.506976777068033
2025-08-28 16:00:00+00:00,-14.506976777068033
2025-08-28 17:00:00+00:00,-14.506976777068033
2025-08-28 18:00:00+00:00,-14.506976777068033
2025-08-28 19:00:00+00:00,-14.506976777068033
2025-08-29 13:00:00+00:00,-14.506976777068033
2025-08-29 14:00:00+00:00,-14.506976777068033
2025-08-29 15:00:00+00:00,-14.506976777068033
2025-08-29 16:00:00+00:00,-14.506976777068033
2025-08-29 17:00:00+00:00,-14.506976777068033
2025-08-29 18:00:00+00:00,-14.506976777068033
2025-08-29 19:00:00+00:00,-14.506976777068033
2025-09-02 13:00:00+00:00,-14.506976777068033
2025-09-02 14:00:00+00:00,-14.506976777068033
2025-09-02 15:00:00+00:00,-14.506976777068033
2025-09-02 16:00:00+00:00,-14.506976777068033
2025-09-02 17:00:00+00:00,-14.506976777068033
2025-09-02 18:00:00+00:00,-14.506976777068033
2025-09-02 19:00:00+00:00,-14.506976777068033
2025-09-03 13:00:00+00:00,-14.506976777068033
2025-09-03 14:00:00+00:00,-14.506976777068033
2025-09-03 15:00:00+00:00,-14.506976777068033
2025-09-03 16:00:00+00:00,-14.506976777068033
2025-09-03 17:00:00+00:00,-14.506976777068033
2025-09-03 18:00:00+00:00,-14.506976777068033
2025-09-03 19:00:00+00:00,-14.506976777068033
2025-09-04 13:00:00+00:00,-14.506976777068033
2025-09-04 14:00:00+00:00,-14.506976777068033
2025-09-04 15:00:00+00:00,-14.506976777068033
2025-09-04 16:00:00+00:00,-14.506976777068033
2025-09-04 17:00:00+00:00,-14.506976777068033
2025-09-04 18:00:00+00:00,-14.506976777068033
2025-09-04 19:00:00+00:00,-14.506976777068033
2025-09-05 13:00:00+00:00,-14.506976777068033
2025-09-05 14:00:00+00:00,-14.506976777068033
2025-09-05 15:00:00+00:00,-14.506976777068033
2025-09-05 16:00:00+00:00,-14.506976777068033
2025-09-05 17:00:00+00:00,-14.506976777068033
2025-09-05 18:00:00+00:00,-14.506976777068033
2025-09-05 19:00:00+00:00,-14.506976777068033
2025-09-08 13:00:00+00:00,-14.506976777068033
2025-09-08 14:00:00+00:00,-14.506976777068033
2025-09-08 15:00:00+00:00,-14.506976777068033
2025-09-08 16:00:00+00:00,-14.506976777068033
2025-09-08 17:00:00+00:00,-14.506976777068033
2025-09-08 18:00:00+00:00,-14.506976777068033
2025-09-08 19:00:00+00:00,-14.506976777068033
2025-09-09 13:00:00+00:00,-14.506976777068033
2025-09-09 14:00:00+00:00,-14.506976777068033
2025-09-09 15:00:00+00:00,-14.506976777068033
2025-09-09 16:00:00+00:00,-14.506976777068033
2025-09-09 17:00:00+00:00,-14.506976777068033
2025-09-09 18:00:00+00:00,-14.506976777068033
2025-09-09 19:00:00+00:00,-14.506976777068033
2025-09-10 13:00:00+00:00,-14.506976777068033
2025-09-10 14:00:00+00:00,-14.506976777068033
2025-09-10 15:00:00+00:00,-14.506976777068033
2025-09-10 16:00:00+00:00,-14.506976777068033
2025-09-10 17:00:00+00:00,-14.506976777068033
2025-09-10 18:00:00+00:00,-14.506976777068033
2025-09-10 19:00:00+00:00,-14.506976777068033
2025-09-11 13:00:00+00:00,-14.506976777068033
2025-09-11 14:00:00+00:00,-14.506976777068033
2025-09-11 15:00:00+00:00,-14.506976777068033
2025-09-11 16:00:00+00:00,-14.506976777068033
2025-09-11 17:00:00+00:00,-14.506976777068033
2025-09-11 18:00:00+00:00,-14.506976777068033
2025-09-11 19:00:00+00:00,-14.506976777068033
2025-09-12 13:00:00+00:00,-14.506976777068033
2025-09-12 14:00:00+00:00,-14.506976777068033
2025-09-12 15:00:00+00:00,-14.506976777068033
2025-09-12 16:00:00+00:00,-14.506976777068033
2025-09-12 17:00:00+00:00,-14.506976777068033
2025-09-12 18:00:00+00:00,-14.506976777068033
2025-09-12 19:00:00+00:00,-14.506976777068033
2025-09-15 13:00:00+00:00,-14.506976777068033
2025-09-15 14:00:00+00:00,-14.506976777068033
2025-09-15 15:00:00+00:00,-14.506976777068033
2025-09-15 16:00:00+00:00,-14.506976777068033
2025-09-15 17:00:00+00:00,-14.506976777068033
