Date,0
2024-01-02 14:00:00+00:00,0.0
2024-01-02 15:00:00+00:00,0.0
2024-01-02 16:00:00+00:00,0.0
2024-01-02 17:00:00+00:00,0.0
2024-01-02 18:00:00+00:00,0.0
2024-01-02 19:00:00+00:00,0.0
2024-01-02 20:00:00+00:00,0.0
2024-01-03 14:00:00+00:00,0.0
2024-01-03 15:00:00+00:00,0.0
2024-01-03 16:00:00+00:00,0.0
2024-01-03 17:00:00+00:00,0.0
2024-01-03 18:00:00+00:00,0.0
2024-01-03 19:00:00+00:00,0.0
2024-01-03 20:00:00+00:00,0.0
2024-01-04 14:00:00+00:00,0.0
2024-01-04 15:00:00+00:00,0.0
2024-01-04 16:00:00+00:00,0.0
2024-01-04 17:00:00+00:00,0.0
2024-01-04 18:00:00+00:00,0.0
2024-01-04 19:00:00+00:00,0.0
2024-01-04 20:00:00+00:00,0.0
2024-01-05 14:00:00+00:00,0.0
2024-01-05 15:00:00+00:00,0.0
2024-01-05 16:00:00+00:00,0.0
2024-01-05 17:00:00+00:00,0.0
2024-01-05 18:00:00+00:00,0.0
2024-01-05 19:00:00+00:00,0.0
2024-01-05 20:00:00+00:00,0.0
2024-01-08 14:00:00+00:00,0.0
2024-01-08 15:00:00+00:00,0.0
2024-01-08 16:00:00+00:00,0.0
2024-01-08 17:00:00+00:00,0.0
2024-01-08 18:00:00+00:00,0.0
2024-01-08 19:00:00+00:00,0.0
2024-01-08 20:00:00+00:00,0.0
2024-01-09 14:00:00+00:00,0.0
2024-01-09 15:00:00+00:00,0.0
2024-01-09 16:00:00+00:00,0.0
2024-01-09 17:00:00+00:00,0.0
2024-01-09 18:00:00+00:00,0.0
2024-01-09 19:00:00+00:00,0.0
2024-01-09 20:00:00+00:00,0.0
2024-01-10 14:00:00+00:00,0.0
2024-01-10 15:00:00+00:00,0.0
2024-01-10 16:00:00+00:00,0.0
2024-01-10 17:00:00+00:00,0.0
2024-01-10 18:00:00+00:00,0.0
2024-01-10 19:00:00+00:00,0.0
2024-01-10 20:00:00+00:00,0.0
2024-01-11 14:00:00+00:00,0.0
2024-01-11 15:00:00+00:00,0.0
2024-01-11 16:00:00+00:00,0.0
2024-01-11 17:00:00+00:00,0.0
2024-01-11 18:00:00+00:00,0.0
2024-01-11 19:00:00+00:00,0.0
2024-01-11 20:00:00+00:00,0.0
2024-01-12 14:00:00+00:00,0.0
2024-01-12 15:00:00+00:00,0.0
2024-01-12 16:00:00+00:00,0.0
2024-01-12 17:00:00+00:00,0.0
2024-01-12 18:00:00+00:00,0.0
2024-01-12 19:00:00+00:00,0.0
2024-01-12 20:00:00+00:00,0.0
2024-01-16 14:00:00+00:00,0.0
2024-01-16 15:00:00+00:00,0.0
2024-01-16 16:00:00+00:00,0.0
2024-01-16 17:00:00+00:00,0.0
2024-01-16 18:00:00+00:00,0.0
2024-01-16 19:00:00+00:00,0.0
2024-01-16 20:00:00+00:00,0.0
2024-01-17 14:00:00+00:00,0.0
2024-01-17 15:00:00+00:00,0.0
2024-01-17 16:00:00+00:00,0.0
2024-01-17 17:00:00+00:00,0.0
2024-01-17 18:00:00+00:00,0.0
2024-01-17 19:00:00+00:00,0.0
2024-01-17 20:00:00+00:00,0.0
2024-01-18 14:00:00+00:00,0.0
2024-01-18 15:00:00+00:00,0.0
2024-01-18 16:00:00+00:00,0.0
2024-01-18 17:00:00+00:00,0.0
2024-01-18 18:00:00+00:00,0.0
2024-01-18 19:00:00+00:00,0.0
2024-01-18 20:00:00+00:00,0.0
2024-01-19 14:00:00+00:00,0.0
2024-01-19 15:00:00+00:00,0.0
2024-01-19 16:00:00+00:00,0.0
2024-01-19 17:00:00+00:00,0.0
2024-01-19 18:00:00+00:00,0.0
2024-01-19 19:00:00+00:00,0.0
2024-01-19 20:00:00+00:00,0.0
2024-01-22 14:00:00+00:00,0.0
2024-01-22 15:00:00+00:00,0.0
2024-01-22 16:00:00+00:00,0.0
2024-01-22 17:00:00+00:00,0.0
2024-01-22 18:00:00+00:00,0.0
2024-01-22 19:00:00+00:00,0.0
2024-01-22 20:00:00+00:00,0.0
2024-01-23 14:00:00+00:00,0.0
2024-01-23 15:00:00+00:00,0.0
2024-01-23 16:00:00+00:00,0.0
2024-01-23 17:00:00+00:00,0.0
2024-01-23 18:00:00+00:00,0.0
2024-01-23 19:00:00+00:00,0.0
2024-01-23 20:00:00+00:00,0.0
2024-01-24 14:00:00+00:00,0.0
2024-01-24 15:00:00+00:00,0.0
2024-01-24 16:00:00+00:00,0.0
2024-01-24 17:00:00+00:00,0.0
2024-01-24 18:00:00+00:00,0.0
2024-01-24 19:00:00+00:00,0.0
2024-01-24 20:00:00+00:00,0.0
2024-01-25 14:00:00+00:00,0.0
2024-01-25 15:00:00+00:00,0.0
2024-01-25 16:00:00+00:00,0.0
2024-01-25 17:00:00+00:00,0.0
2024-01-25 18:00:00+00:00,0.0
2024-01-25 19:00:00+00:00,0.0
2024-01-25 20:00:00+00:00,0.0
2024-01-26 14:00:00+00:00,0.0
2024-01-26 15:00:00+00:00,0.0
2024-01-26 16:00:00+00:00,0.0
2024-01-26 17:00:00+00:00,0.0
2024-01-26 18:00:00+00:00,0.0
2024-01-26 19:00:00+00:00,0.0
2024-01-26 20:00:00+00:00,0.0
2024-01-29 14:00:00+00:00,0.0
2024-01-29 15:00:00+00:00,0.0
2024-01-29 16:00:00+00:00,0.0
2024-01-29 17:00:00+00:00,0.0
2024-01-29 18:00:00+00:00,0.0
2024-01-29 19:00:00+00:00,0.0
2024-01-29 20:00:00+00:00,0.0
2024-01-30 14:00:00+00:00,0.0
2024-01-30 15:00:00+00:00,0.0
2024-01-30 16:00:00+00:00,0.0
2024-01-30 17:00:00+00:00,0.0
2024-01-30 18:00:00+00:00,0.0
2024-01-30 19:00:00+00:00,0.0
2024-01-30 20:00:00+00:00,0.0
2024-01-31 14:00:00+00:00,0.0
2024-01-31 15:00:00+00:00,0.0
2024-01-31 16:00:00+00:00,0.0
2024-01-31 17:00:00+00:00,0.0
2024-01-31 18:00:00+00:00,0.0
2024-01-31 19:00:00+00:00,0.0
2024-01-31 20:00:00+00:00,0.0
2024-02-01 14:00:00+00:00,0.0
2024-02-01 15:00:00+00:00,0.0
2024-02-01 16:00:00+00:00,0.0
2024-02-01 17:00:00+00:00,0.0
2024-02-01 18:00:00+00:00,0.0
2024-02-01 19:00:00+00:00,0.0
2024-02-01 20:00:00+00:00,0.0
2024-02-02 14:00:00+00:00,0.0
2024-02-02 15:00:00+00:00,0.0
2024-02-02 16:00:00+00:00,0.0
2024-02-02 17:00:00+00:00,0.0
2024-02-02 18:00:00+00:00,0.0
2024-02-02 19:00:00+00:00,0.0
2024-02-02 20:00:00+00:00,0.0
2024-02-05 14:00:00+00:00,0.0
2024-02-05 15:00:00+00:00,0.0
2024-02-05 16:00:00+00:00,0.0
2024-02-05 17:00:00+00:00,0.0
2024-02-05 18:00:00+00:00,0.0
2024-02-05 19:00:00+00:00,0.0
2024-02-05 20:00:00+00:00,0.0
2024-02-06 14:00:00+00:00,0.0
2024-02-06 15:00:00+00:00,0.0
2024-02-06 16:00:00+00:00,0.0
2024-02-06 17:00:00+00:00,0.0
2024-02-06 18:00:00+00:00,0.0
2024-02-06 19:00:00+00:00,0.0
2024-02-06 20:00:00+00:00,0.0
2024-02-07 14:00:00+00:00,0.0
2024-02-07 15:00:00+00:00,0.0
2024-02-07 16:00:00+00:00,0.0
2024-02-07 17:00:00+00:00,0.0
2024-02-07 18:00:00+00:00,0.0
2024-02-07 19:00:00+00:00,0.0
2024-02-07 20:00:00+00:00,0.0
2024-02-08 14:00:00+00:00,0.0
2024-02-08 15:00:00+00:00,0.0
2024-02-08 16:00:00+00:00,0.0
2024-02-08 17:00:00+00:00,0.0
2024-02-08 18:00:00+00:00,0.0
2024-02-08 19:00:00+00:00,0.0
2024-02-08 20:00:00+00:00,0.0
2024-02-09 14:00:00+00:00,0.0
2024-02-09 15:00:00+00:00,0.0
2024-02-09 16:00:00+00:00,0.0
2024-02-09 17:00:00+00:00,0.0
2024-02-09 18:00:00+00:00,0.0
2024-02-09 19:00:00+00:00,0.0
2024-02-09 20:00:00+00:00,0.0
2024-02-12 14:00:00+00:00,0.0
2024-02-12 15:00:00+00:00,0.0
2024-02-12 16:00:00+00:00,0.0
2024-02-12 17:00:00+00:00,0.0
2024-02-12 18:00:00+00:00,0.0
2024-02-12 19:00:00+00:00,0.0
2024-02-12 20:00:00+00:00,0.0
2024-02-13 14:00:00+00:00,0.0
2024-02-13 15:00:00+00:00,0.0
2024-02-13 16:00:00+00:00,0.0
2024-02-13 17:00:00+00:00,0.0
2024-02-13 18:00:00+00:00,0.0
2024-02-13 19:00:00+00:00,0.0
2024-02-13 20:00:00+00:00,0.0
2024-02-14 14:00:00+00:00,0.0
2024-02-14 15:00:00+00:00,0.0
2024-02-14 16:00:00+00:00,0.0
2024-02-14 17:00:00+00:00,0.0
2024-02-14 18:00:00+00:00,0.0
2024-02-14 19:00:00+00:00,0.0
2024-02-14 20:00:00+00:00,0.0
2024-02-15 14:00:00+00:00,0.0
2024-02-15 15:00:00+00:00,0.0
2024-02-15 16:00:00+00:00,0.0
2024-02-15 17:00:00+00:00,0.0
2024-02-15 18:00:00+00:00,0.0
2024-02-15 19:00:00+00:00,0.0
2024-02-15 20:00:00+00:00,0.0
2024-02-16 14:00:00+00:00,0.0
2024-02-16 15:00:00+00:00,0.0
2024-02-16 16:00:00+00:00,0.0
2024-02-16 17:00:00+00:00,0.0
2024-02-16 18:00:00+00:00,0.0
2024-02-16 19:00:00+00:00,0.0
2024-02-16 20:00:00+00:00,0.0
2024-02-20 14:00:00+00:00,0.0
2024-02-20 15:00:00+00:00,0.0
2024-02-20 16:00:00+00:00,0.0
2024-02-20 17:00:00+00:00,0.0
2024-02-20 18:00:00+00:00,0.0
2024-02-20 19:00:00+00:00,0.0
2024-02-20 20:00:00+00:00,0.0
2024-02-21 14:00:00+00:00,0.0
2024-02-21 15:00:00+00:00,0.0
2024-02-21 16:00:00+00:00,0.0
2024-02-21 17:00:00+00:00,0.0
2024-02-21 18:00:00+00:00,0.0
2024-02-21 19:00:00+00:00,0.0
2024-02-21 20:00:00+00:00,0.0
2024-02-22 14:00:00+00:00,0.0
2024-02-22 15:00:00+00:00,0.0
2024-02-22 16:00:00+00:00,0.0
2024-02-22 17:00:00+00:00,0.0
2024-02-22 18:00:00+00:00,0.0
2024-02-22 19:00:00+00:00,0.0
2024-02-22 20:00:00+00:00,0.0
2024-02-23 14:00:00+00:00,0.0
2024-02-23 15:00:00+00:00,0.0
2024-02-23 16:00:00+00:00,0.0
2024-02-23 17:00:00+00:00,0.0
2024-02-23 18:00:00+00:00,0.0
2024-02-23 19:00:00+00:00,0.0
2024-02-23 20:00:00+00:00,0.0
2024-02-26 14:00:00+00:00,0.0
2024-02-26 15:00:00+00:00,0.0
2024-02-26 16:00:00+00:00,0.0
2024-02-26 17:00:00+00:00,0.0
2024-02-26 18:00:00+00:00,0.0
2024-02-26 19:00:00+00:00,0.0
2024-02-26 20:00:00+00:00,0.0
2024-02-27 14:00:00+00:00,0.0
2024-02-27 15:00:00+00:00,0.0
2024-02-27 16:00:00+00:00,0.0
2024-02-27 17:00:00+00:00,0.0
2024-02-27 18:00:00+00:00,0.0
2024-02-27 19:00:00+00:00,0.0
2024-02-27 20:00:00+00:00,0.0
2024-02-28 14:00:00+00:00,0.0
2024-02-28 15:00:00+00:00,0.0
2024-02-28 16:00:00+00:00,0.0
2024-02-28 17:00:00+00:00,0.0
2024-02-28 18:00:00+00:00,0.0
2024-02-28 19:00:00+00:00,0.0
2024-02-28 20:00:00+00:00,0.0
2024-02-29 14:00:00+00:00,0.0
2024-02-29 15:00:00+00:00,0.0
2024-02-29 16:00:00+00:00,0.0
2024-02-29 17:00:00+00:00,0.0
2024-02-29 18:00:00+00:00,0.0
2024-02-29 19:00:00+00:00,0.0
2024-02-29 20:00:00+00:00,0.0
2024-03-01 14:00:00+00:00,0.0
2024-03-01 15:00:00+00:00,0.0
2024-03-01 16:00:00+00:00,0.0
2024-03-01 17:00:00+00:00,0.0
2024-03-01 18:00:00+00:00,0.0
2024-03-01 19:00:00+00:00,0.0
2024-03-01 20:00:00+00:00,0.0
2024-03-04 14:00:00+00:00,0.0
2024-03-04 15:00:00+00:00,0.0
2024-03-04 16:00:00+00:00,0.0
2024-03-04 17:00:00+00:00,0.0
2024-03-04 18:00:00+00:00,0.0
2024-03-04 19:00:00+00:00,0.0
2024-03-04 20:00:00+00:00,0.0
2024-03-05 14:00:00+00:00,0.0
2024-03-05 15:00:00+00:00,0.0
2024-03-05 16:00:00+00:00,0.0
2024-03-05 17:00:00+00:00,0.0
2024-03-05 18:00:00+00:00,0.0
2024-03-05 19:00:00+00:00,0.0
2024-03-05 20:00:00+00:00,0.0
2024-03-06 14:00:00+00:00,0.0
2024-03-06 15:00:00+00:00,0.0
2024-03-06 16:00:00+00:00,0.0
2024-03-06 17:00:00+00:00,0.0
2024-03-06 18:00:00+00:00,0.0
2024-03-06 19:00:00+00:00,0.0
2024-03-06 20:00:00+00:00,0.0
2024-03-07 14:00:00+00:00,0.0
2024-03-07 15:00:00+00:00,0.0
2024-03-07 16:00:00+00:00,0.0
2024-03-07 17:00:00+00:00,0.0
2024-03-07 18:00:00+00:00,0.0
2024-03-07 19:00:00+00:00,0.0
2024-03-07 20:00:00+00:00,0.0
2024-03-08 14:00:00+00:00,0.0
2024-03-08 15:00:00+00:00,0.0
2024-03-08 16:00:00+00:00,0.0
2024-03-08 17:00:00+00:00,0.0
2024-03-08 18:00:00+00:00,0.0
2024-03-08 19:00:00+00:00,0.0
2024-03-08 20:00:00+00:00,0.0
2024-03-11 13:00:00+00:00,0.0
2024-03-11 14:00:00+00:00,0.0
2024-03-11 15:00:00+00:00,0.0
2024-03-11 16:00:00+00:00,0.0
2024-03-11 17:00:00+00:00,0.0
2024-03-11 18:00:00+00:00,0.0
2024-03-11 19:00:00+00:00,0.0
2024-03-12 13:00:00+00:00,0.0
2024-03-12 14:00:00+00:00,0.0
2024-03-12 15:00:00+00:00,0.0
2024-03-12 16:00:00+00:00,0.0
2024-03-12 17:00:00+00:00,0.0
2024-03-12 18:00:00+00:00,0.0
2024-03-12 19:00:00+00:00,0.0
2024-03-13 13:00:00+00:00,0.0
2024-03-13 14:00:00+00:00,0.0
2024-03-13 15:00:00+00:00,0.0
2024-03-13 16:00:00+00:00,0.0
2024-03-13 17:00:00+00:00,0.0
2024-03-13 18:00:00+00:00,0.0
2024-03-13 19:00:00+00:00,0.0
2024-03-14 13:00:00+00:00,0.0
2024-03-14 14:00:00+00:00,0.0
2024-03-14 15:00:00+00:00,0.0
2024-03-14 16:00:00+00:00,0.0
2024-03-14 17:00:00+00:00,0.0
2024-03-14 18:00:00+00:00,0.0
2024-03-14 19:00:00+00:00,0.0
2024-03-15 13:00:00+00:00,0.0
2024-03-15 14:00:00+00:00,0.0
2024-03-15 15:00:00+00:00,0.0
2024-03-15 16:00:00+00:00,0.0
2024-03-15 17:00:00+00:00,0.0
2024-03-15 18:00:00+00:00,0.0
2024-03-15 19:00:00+00:00,0.0
2024-03-18 13:00:00+00:00,0.0
2024-03-18 14:00:00+00:00,0.0
2024-03-18 15:00:00+00:00,0.0
2024-03-18 16:00:00+00:00,0.0
2024-03-18 17:00:00+00:00,0.0
2024-03-18 18:00:00+00:00,0.0
2024-03-18 19:00:00+00:00,0.0
2024-03-19 13:00:00+00:00,0.0
2024-03-19 14:00:00+00:00,0.0
2024-03-19 15:00:00+00:00,0.0
2024-03-19 16:00:00+00:00,0.0
2024-03-19 17:00:00+00:00,0.0
2024-03-19 18:00:00+00:00,0.0
2024-03-19 19:00:00+00:00,0.0
2024-03-20 13:00:00+00:00,0.0
2024-03-20 14:00:00+00:00,0.0
2024-03-20 15:00:00+00:00,0.0
2024-03-20 16:00:00+00:00,0.0
2024-03-20 17:00:00+00:00,0.0
2024-03-20 18:00:00+00:00,0.0
2024-03-20 19:00:00+00:00,0.0
2024-03-21 13:00:00+00:00,0.0
2024-03-21 14:00:00+00:00,0.0
2024-03-21 15:00:00+00:00,0.0
2024-03-21 16:00:00+00:00,0.0
2024-03-21 17:00:00+00:00,0.0
2024-03-21 18:00:00+00:00,0.0
2024-03-21 19:00:00+00:00,0.0
2024-03-22 13:00:00+00:00,0.0
2024-03-22 14:00:00+00:00,0.0
2024-03-22 15:00:00+00:00,0.0
2024-03-22 16:00:00+00:00,0.0
2024-03-22 17:00:00+00:00,0.0
2024-03-22 18:00:00+00:00,0.0
2024-03-22 19:00:00+00:00,0.0
2024-03-25 13:00:00+00:00,0.0
2024-03-25 14:00:00+00:00,0.0
2024-03-25 15:00:00+00:00,0.0
2024-03-25 16:00:00+00:00,0.0
2024-03-25 17:00:00+00:00,0.0
2024-03-25 18:00:00+00:00,0.0
2024-03-25 19:00:00+00:00,0.0
2024-03-26 13:00:00+00:00,0.0
2024-03-26 14:00:00+00:00,0.0
2024-03-26 15:00:00+00:00,0.0
2024-03-26 16:00:00+00:00,0.0
2024-03-26 17:00:00+00:00,0.0
2024-03-26 18:00:00+00:00,0.0
2024-03-26 19:00:00+00:00,0.0
2024-03-27 13:00:00+00:00,0.0
2024-03-27 14:00:00+00:00,0.0
2024-03-27 15:00:00+00:00,0.0
2024-03-27 16:00:00+00:00,0.0
2024-03-27 17:00:00+00:00,0.0
2024-03-27 18:00:00+00:00,0.0
2024-03-27 19:00:00+00:00,0.0
2024-03-28 13:00:00+00:00,0.0
2024-03-28 14:00:00+00:00,0.0
2024-03-28 15:00:00+00:00,0.0
2024-03-28 16:00:00+00:00,0.0
2024-03-28 17:00:00+00:00,0.0
2024-03-28 18:00:00+00:00,0.0
2024-03-28 19:00:00+00:00,0.0
2024-04-01 13:00:00+00:00,0.0
2024-04-01 14:00:00+00:00,0.0
2024-04-01 15:00:00+00:00,0.0
2024-04-01 16:00:00+00:00,0.0
2024-04-01 17:00:00+00:00,0.0
2024-04-01 18:00:00+00:00,0.0
2024-04-01 19:00:00+00:00,0.0
2024-04-02 13:00:00+00:00,0.0
2024-04-02 14:00:00+00:00,0.0
2024-04-02 15:00:00+00:00,0.0
2024-04-02 16:00:00+00:00,0.0
2024-04-02 17:00:00+00:00,0.0
2024-04-02 18:00:00+00:00,0.0
2024-04-02 19:00:00+00:00,0.0
2024-04-03 13:00:00+00:00,0.0
2024-04-03 14:00:00+00:00,0.0
2024-04-03 15:00:00+00:00,0.0
2024-04-03 16:00:00+00:00,0.0
2024-04-03 17:00:00+00:00,0.0
2024-04-03 18:00:00+00:00,0.0
2024-04-03 19:00:00+00:00,0.0
2024-04-04 13:00:00+00:00,0.0
2024-04-04 14:00:00+00:00,0.0
2024-04-04 15:00:00+00:00,0.0
2024-04-04 16:00:00+00:00,0.0
2024-04-04 17:00:00+00:00,0.0
2024-04-04 18:00:00+00:00,0.0
2024-04-04 19:00:00+00:00,0.0
2024-04-05 13:00:00+00:00,0.0
2024-04-05 14:00:00+00:00,0.0
2024-04-05 15:00:00+00:00,0.0
2024-04-05 16:00:00+00:00,0.0
2024-04-05 17:00:00+00:00,0.0
2024-04-05 18:00:00+00:00,0.0
2024-04-05 19:00:00+00:00,0.0
2024-04-08 13:00:00+00:00,0.0
2024-04-08 14:00:00+00:00,0.0
2024-04-08 15:00:00+00:00,0.0
2024-04-08 16:00:00+00:00,0.0
2024-04-08 17:00:00+00:00,0.0
2024-04-08 18:00:00+00:00,0.0
2024-04-08 19:00:00+00:00,0.0
2024-04-09 13:00:00+00:00,0.0
2024-04-09 14:00:00+00:00,0.0
2024-04-09 15:00:00+00:00,0.0
2024-04-09 16:00:00+00:00,0.0
2024-04-09 17:00:00+00:00,0.0
2024-04-09 18:00:00+00:00,0.0
2024-04-09 19:00:00+00:00,0.0
2024-04-10 13:00:00+00:00,0.0
2024-04-10 14:00:00+00:00,0.0
2024-04-10 15:00:00+00:00,0.0
2024-04-10 16:00:00+00:00,0.0
2024-04-10 17:00:00+00:00,0.0
2024-04-10 18:00:00+00:00,0.0
2024-04-10 19:00:00+00:00,0.0
2024-04-11 13:00:00+00:00,0.0
2024-04-11 14:00:00+00:00,0.0
2024-04-11 15:00:00+00:00,0.0
2024-04-11 16:00:00+00:00,0.0
2024-04-11 17:00:00+00:00,0.0
2024-04-11 18:00:00+00:00,0.0
2024-04-11 19:00:00+00:00,0.0
2024-04-12 13:00:00+00:00,0.0
2024-04-12 14:00:00+00:00,0.0
2024-04-12 15:00:00+00:00,0.0
2024-04-12 16:00:00+00:00,0.0
2024-04-12 17:00:00+00:00,0.0
2024-04-12 18:00:00+00:00,0.0
2024-04-12 19:00:00+00:00,0.0
2024-04-15 13:00:00+00:00,0.0
2024-04-15 14:00:00+00:00,0.0
2024-04-15 15:00:00+00:00,0.0
2024-04-15 16:00:00+00:00,0.0
2024-04-15 17:00:00+00:00,0.0
2024-04-15 18:00:00+00:00,0.0
2024-04-15 19:00:00+00:00,0.0
2024-04-16 13:00:00+00:00,0.0
2024-04-16 14:00:00+00:00,0.0
2024-04-16 15:00:00+00:00,0.0
2024-04-16 16:00:00+00:00,0.0
2024-04-16 17:00:00+00:00,0.0
2024-04-16 18:00:00+00:00,0.0
2024-04-16 19:00:00+00:00,0.0
2024-04-17 13:00:00+00:00,0.0
2024-04-17 14:00:00+00:00,0.0
2024-04-17 15:00:00+00:00,0.0
2024-04-17 16:00:00+00:00,0.0
2024-04-17 17:00:00+00:00,0.0
2024-04-17 18:00:00+00:00,0.0
2024-04-17 19:00:00+00:00,0.0
2024-04-18 13:00:00+00:00,0.0
2024-04-18 14:00:00+00:00,0.0
2024-04-18 15:00:00+00:00,0.0
2024-04-18 16:00:00+00:00,0.0
2024-04-18 17:00:00+00:00,0.0
2024-04-18 18:00:00+00:00,0.0
2024-04-18 19:00:00+00:00,0.0
2024-04-19 13:00:00+00:00,0.0
2024-04-19 14:00:00+00:00,0.0
2024-04-19 15:00:00+00:00,0.0
2024-04-19 16:00:00+00:00,0.0
2024-04-19 17:00:00+00:00,0.0
2024-04-19 18:00:00+00:00,0.0
2024-04-19 19:00:00+00:00,0.0
2024-04-22 13:00:00+00:00,0.0
2024-04-22 14:00:00+00:00,0.0
2024-04-22 15:00:00+00:00,0.0
2024-04-22 16:00:00+00:00,0.0
2024-04-22 17:00:00+00:00,0.0
2024-04-22 18:00:00+00:00,0.0
2024-04-22 19:00:00+00:00,0.0
2024-04-23 13:00:00+00:00,0.0
2024-04-23 14:00:00+00:00,0.0
2024-04-23 15:00:00+00:00,0.0
2024-04-23 16:00:00+00:00,0.0
2024-04-23 17:00:00+00:00,0.0
2024-04-23 18:00:00+00:00,0.0
2024-04-23 19:00:00+00:00,0.0
2024-04-24 13:00:00+00:00,0.0
2024-04-24 14:00:00+00:00,0.0
2024-04-24 15:00:00+00:00,0.0
2024-04-24 16:00:00+00:00,0.0
2024-04-24 17:00:00+00:00,0.0
2024-04-24 18:00:00+00:00,0.0
2024-04-24 19:00:00+00:00,0.0
2024-04-25 13:00:00+00:00,0.0
2024-04-25 14:00:00+00:00,0.0
2024-04-25 15:00:00+00:00,0.0
2024-04-25 16:00:00+00:00,0.0
2024-04-25 17:00:00+00:00,0.0
2024-04-25 18:00:00+00:00,0.0
2024-04-25 19:00:00+00:00,0.0
2024-04-26 13:00:00+00:00,0.0
2024-04-26 14:00:00+00:00,0.0
2024-04-26 15:00:00+00:00,0.0
2024-04-26 16:00:00+00:00,0.0
2024-04-26 17:00:00+00:00,0.0
2024-04-26 18:00:00+00:00,0.0
2024-04-26 19:00:00+00:00,0.0
2024-04-29 13:00:00+00:00,0.0
2024-04-29 14:00:00+00:00,0.0
2024-04-29 15:00:00+00:00,0.0
2024-04-29 16:00:00+00:00,0.0
2024-04-29 17:00:00+00:00,0.0
2024-04-29 18:00:00+00:00,0.0
2024-04-29 19:00:00+00:00,0.0
2024-04-30 13:00:00+00:00,0.0
2024-04-30 14:00:00+00:00,0.0
2024-04-30 15:00:00+00:00,0.0
2024-04-30 16:00:00+00:00,0.0
2024-04-30 17:00:00+00:00,0.0
2024-04-30 18:00:00+00:00,0.0
2024-04-30 19:00:00+00:00,0.0
2024-05-01 13:00:00+00:00,0.0
2024-05-01 14:00:00+00:00,0.0
2024-05-01 15:00:00+00:00,0.0
2024-05-01 16:00:00+00:00,0.0
2024-05-01 17:00:00+00:00,0.0
2024-05-01 18:00:00+00:00,0.0
2024-05-01 19:00:00+00:00,0.0
2024-05-02 13:00:00+00:00,0.0
2024-05-02 14:00:00+00:00,0.0
2024-05-02 15:00:00+00:00,0.0
2024-05-02 16:00:00+00:00,0.0
2024-05-02 17:00:00+00:00,0.0
2024-05-02 18:00:00+00:00,0.0
2024-05-02 19:00:00+00:00,0.0
2024-05-03 13:00:00+00:00,0.0
2024-05-03 14:00:00+00:00,0.0
2024-05-03 15:00:00+00:00,0.0
2024-05-03 16:00:00+00:00,0.0
2024-05-03 17:00:00+00:00,0.0
2024-05-03 18:00:00+00:00,0.0
2024-05-03 19:00:00+00:00,0.0
2024-05-06 13:00:00+00:00,0.0
2024-05-06 14:00:00+00:00,0.0
2024-05-06 15:00:00+00:00,0.0
2024-05-06 16:00:00+00:00,0.0
2024-05-06 17:00:00+00:00,0.0
2024-05-06 18:00:00+00:00,0.0
2024-05-06 19:00:00+00:00,0.0
2024-05-07 13:00:00+00:00,0.0
2024-05-07 14:00:00+00:00,0.0
2024-05-07 15:00:00+00:00,0.0
2024-05-07 16:00:00+00:00,0.0
2024-05-07 17:00:00+00:00,0.0
2024-05-07 18:00:00+00:00,0.0
2024-05-07 19:00:00+00:00,0.0
2024-05-08 13:00:00+00:00,0.0
2024-05-08 14:00:00+00:00,0.0
2024-05-08 15:00:00+00:00,0.0
2024-05-08 16:00:00+00:00,0.0
2024-05-08 17:00:00+00:00,0.0
2024-05-08 18:00:00+00:00,0.0
2024-05-08 19:00:00+00:00,0.0
2024-05-09 13:00:00+00:00,0.0
2024-05-09 14:00:00+00:00,0.0
2024-05-09 15:00:00+00:00,0.0
2024-05-09 16:00:00+00:00,0.0
2024-05-09 17:00:00+00:00,0.0
2024-05-09 18:00:00+00:00,0.0
2024-05-09 19:00:00+00:00,0.0
2024-05-10 13:00:00+00:00,0.0
2024-05-10 14:00:00+00:00,0.0
2024-05-10 15:00:00+00:00,0.0
2024-05-10 16:00:00+00:00,0.0
2024-05-10 17:00:00+00:00,0.0
2024-05-10 18:00:00+00:00,0.0
2024-05-10 19:00:00+00:00,0.0
2024-05-13 13:00:00+00:00,0.0
2024-05-13 14:00:00+00:00,0.0
2024-05-13 15:00:00+00:00,0.0
2024-05-13 16:00:00+00:00,0.0
2024-05-13 17:00:00+00:00,0.0
2024-05-13 18:00:00+00:00,0.0
2024-05-13 19:00:00+00:00,0.0
2024-05-14 13:00:00+00:00,0.0
2024-05-14 14:00:00+00:00,0.0
2024-05-14 15:00:00+00:00,0.0
2024-05-14 16:00:00+00:00,0.0
2024-05-14 17:00:00+00:00,0.0
2024-05-14 18:00:00+00:00,0.0
2024-05-14 19:00:00+00:00,0.0
2024-05-15 13:00:00+00:00,0.0
2024-05-15 14:00:00+00:00,0.0
2024-05-15 15:00:00+00:00,0.0
2024-05-15 16:00:00+00:00,0.0
2024-05-15 17:00:00+00:00,0.0
2024-05-15 18:00:00+00:00,0.0
2024-05-15 19:00:00+00:00,0.0
2024-05-16 13:00:00+00:00,0.0
2024-05-16 14:00:00+00:00,0.0
2024-05-16 15:00:00+00:00,0.0
2024-05-16 16:00:00+00:00,0.0
2024-05-16 17:00:00+00:00,0.0
2024-05-16 18:00:00+00:00,0.0
2024-05-16 19:00:00+00:00,0.0
2024-05-17 13:00:00+00:00,0.0
2024-05-17 14:00:00+00:00,0.0
2024-05-17 15:00:00+00:00,0.0
2024-05-17 16:00:00+00:00,0.0
2024-05-17 17:00:00+00:00,0.0
2024-05-17 18:00:00+00:00,0.0
2024-05-17 19:00:00+00:00,0.0
2024-05-20 13:00:00+00:00,0.0
2024-05-20 14:00:00+00:00,0.0
2024-05-20 15:00:00+00:00,0.0
2024-05-20 16:00:00+00:00,0.0
2024-05-20 17:00:00+00:00,0.0
2024-05-20 18:00:00+00:00,0.0
2024-05-20 19:00:00+00:00,0.0
2024-05-21 13:00:00+00:00,0.0
2024-05-21 14:00:00+00:00,0.0
2024-05-21 15:00:00+00:00,0.0
2024-05-21 16:00:00+00:00,0.0
2024-05-21 17:00:00+00:00,0.0
2024-05-21 18:00:00+00:00,0.0
2024-05-21 19:00:00+00:00,0.0
2024-05-22 13:00:00+00:00,0.0
2024-05-22 14:00:00+00:00,0.0
2024-05-22 15:00:00+00:00,0.0
2024-05-22 16:00:00+00:00,0.0
2024-05-22 17:00:00+00:00,0.0
2024-05-22 18:00:00+00:00,0.0
2024-05-22 19:00:00+00:00,0.0
2024-05-23 13:00:00+00:00,0.0
2024-05-23 14:00:00+00:00,0.0
2024-05-23 15:00:00+00:00,0.0
2024-05-23 16:00:00+00:00,0.0
2024-05-23 17:00:00+00:00,0.0
2024-05-23 18:00:00+00:00,0.0
2024-05-23 19:00:00+00:00,0.0
2024-05-24 13:00:00+00:00,0.0
2024-05-24 14:00:00+00:00,0.0
2024-05-24 15:00:00+00:00,0.0
2024-05-24 16:00:00+00:00,0.0
2024-05-24 17:00:00+00:00,0.0
2024-05-24 18:00:00+00:00,0.0
2024-05-24 19:00:00+00:00,0.0
2024-05-28 13:00:00+00:00,0.0
2024-05-28 14:00:00+00:00,0.0
2024-05-28 15:00:00+00:00,0.0
2024-05-28 16:00:00+00:00,0.0
2024-05-28 17:00:00+00:00,0.0
2024-05-28 18:00:00+00:00,0.0
2024-05-28 19:00:00+00:00,0.0
2024-05-29 13:00:00+00:00,0.0
2024-05-29 14:00:00+00:00,0.0
2024-05-29 15:00:00+00:00,0.0
2024-05-29 16:00:00+00:00,0.0
2024-05-29 17:00:00+00:00,0.0
2024-05-29 18:00:00+00:00,0.0
2024-05-29 19:00:00+00:00,0.0
2024-05-30 13:00:00+00:00,0.0
2024-05-30 14:00:00+00:00,0.0
2024-05-30 15:00:00+00:00,0.0
2024-05-30 16:00:00+00:00,0.0
2024-05-30 17:00:00+00:00,0.0
2024-05-30 18:00:00+00:00,0.0
2024-05-30 19:00:00+00:00,0.0
2024-05-31 13:00:00+00:00,0.0
2024-05-31 14:00:00+00:00,0.0
2024-05-31 15:00:00+00:00,0.0
2024-05-31 16:00:00+00:00,0.0
2024-05-31 17:00:00+00:00,0.0
2024-05-31 18:00:00+00:00,0.0
2024-05-31 19:00:00+00:00,0.0
2024-06-03 13:00:00+00:00,0.0
2024-06-03 14:00:00+00:00,0.0
2024-06-03 15:00:00+00:00,0.0
2024-06-03 16:00:00+00:00,0.0
2024-06-03 17:00:00+00:00,0.0
2024-06-03 18:00:00+00:00,0.0
2024-06-03 19:00:00+00:00,0.0
2024-06-04 13:00:00+00:00,0.0
2024-06-04 14:00:00+00:00,0.0
2024-06-04 15:00:00+00:00,0.0
2024-06-04 16:00:00+00:00,0.0
2024-06-04 17:00:00+00:00,0.0
2024-06-04 18:00:00+00:00,0.0
2024-06-04 19:00:00+00:00,0.0
2024-06-05 13:00:00+00:00,0.0
2024-06-05 14:00:00+00:00,0.0
2024-06-05 17:00:00+00:00,0.0
2024-06-05 19:00:00+00:00,0.0
2024-06-06 13:00:00+00:00,0.0
2024-06-06 14:00:00+00:00,0.0
2024-06-07 13:00:00+00:00,0.0
2024-06-07 14:00:00+00:00,0.0
2024-06-07 15:00:00+00:00,0.0
2024-06-07 16:00:00+00:00,0.0
2024-06-07 17:00:00+00:00,0.0
2024-06-07 18:00:00+00:00,0.0
2024-06-07 19:00:00+00:00,0.0
2024-06-10 13:00:00+00:00,0.0
2024-06-10 14:00:00+00:00,0.0
2024-06-10 16:00:00+00:00,0.0
2024-06-10 17:00:00+00:00,0.0
2024-06-10 18:00:00+00:00,0.0
2024-06-10 19:00:00+00:00,0.0
2024-06-11 13:00:00+00:00,0.0
2024-06-11 14:00:00+00:00,0.0
2024-06-11 15:00:00+00:00,0.0
2024-06-11 17:00:00+00:00,0.0
2024-06-11 18:00:00+00:00,0.0
2024-06-11 19:00:00+00:00,0.0
2024-06-12 13:00:00+00:00,0.0
2024-06-12 15:00:00+00:00,0.0
2024-06-12 18:00:00+00:00,0.0
2024-06-12 19:00:00+00:00,0.0
2024-06-13 13:00:00+00:00,0.0
2024-06-13 14:00:00+00:00,0.0
2024-06-13 15:00:00+00:00,0.0
2024-06-13 17:00:00+00:00,0.0
2024-06-13 18:00:00+00:00,0.0
2024-06-13 19:00:00+00:00,0.0
2024-06-14 13:00:00+00:00,0.0
2024-06-14 14:00:00+00:00,0.0
2024-06-14 15:00:00+00:00,0.0
2024-06-14 17:00:00+00:00,0.0
2024-06-14 19:00:00+00:00,0.0
2024-06-17 13:00:00+00:00,0.0
2024-06-17 14:00:00+00:00,0.0
2024-06-17 16:00:00+00:00,0.0
2024-06-17 17:00:00+00:00,0.0
2024-06-17 18:00:00+00:00,0.0
2024-06-17 19:00:00+00:00,0.0
2024-06-18 15:00:00+00:00,0.0
2024-06-18 16:00:00+00:00,0.0
2024-06-18 17:00:00+00:00,0.0
2024-06-18 18:00:00+00:00,0.0
2024-06-18 19:00:00+00:00,0.0
2024-06-20 13:00:00+00:00,0.0
2024-06-20 15:00:00+00:00,0.0
2024-06-20 16:00:00+00:00,0.0
2024-06-20 17:00:00+00:00,0.0
2024-06-20 18:00:00+00:00,0.0
2024-06-21 13:00:00+00:00,0.0
2024-06-21 17:00:00+00:00,0.0
2024-06-21 19:00:00+00:00,0.0
2024-06-24 13:00:00+00:00,0.0
2024-06-24 14:00:00+00:00,0.0
2024-06-24 15:00:00+00:00,0.0
2024-06-24 19:00:00+00:00,0.0
2024-06-25 13:00:00+00:00,0.0
2024-06-25 14:00:00+00:00,0.0
2024-06-25 15:00:00+00:00,0.0
2024-06-25 16:00:00+00:00,0.0
2024-06-25 17:00:00+00:00,0.0
2024-06-25 19:00:00+00:00,0.0
2024-06-26 13:00:00+00:00,0.0
2024-06-26 14:00:00+00:00,0.0
2024-06-26 15:00:00+00:00,0.0
2024-06-26 16:00:00+00:00,0.0
2024-06-26 18:00:00+00:00,0.0
2024-06-26 19:00:00+00:00,0.0
2024-06-27 14:00:00+00:00,0.0
2024-06-27 18:00:00+00:00,0.0
2024-06-27 19:00:00+00:00,0.0
2024-06-28 13:00:00+00:00,0.0
2024-06-28 15:00:00+00:00,0.0
2024-06-28 17:00:00+00:00,0.0
2024-06-28 18:00:00+00:00,0.0
2024-06-28 19:00:00+00:00,0.0
2024-07-01 13:00:00+00:00,0.0
2024-07-01 14:00:00+00:00,0.0
2024-07-01 15:00:00+00:00,0.0
2024-07-01 17:00:00+00:00,0.0
2024-07-01 18:00:00+00:00,0.0
2024-07-02 13:00:00+00:00,0.0
2024-07-02 16:00:00+00:00,0.0
2024-07-02 18:00:00+00:00,0.0
2024-07-02 19:00:00+00:00,0.0
2024-07-03 13:00:00+00:00,0.0
2024-07-03 14:00:00+00:00,0.0
2024-07-03 15:00:00+00:00,0.0
2024-07-05 13:00:00+00:00,0.0
2024-07-05 15:00:00+00:00,0.0
2024-07-05 16:00:00+00:00,0.0
2024-07-05 18:00:00+00:00,0.0
2024-07-05 19:00:00+00:00,0.0
2024-07-08 13:00:00+00:00,0.0
2024-07-08 14:00:00+00:00,0.0
2024-07-08 15:00:00+00:00,0.0
2024-07-08 16:00:00+00:00,0.0
2024-07-08 17:00:00+00:00,0.0
2024-07-08 18:00:00+00:00,0.0
2024-07-08 19:00:00+00:00,0.0
2024-07-09 13:00:00+00:00,0.0
2024-07-09 14:00:00+00:00,0.0
2024-07-09 16:00:00+00:00,0.0
2024-07-09 17:00:00+00:00,0.0
2024-07-09 18:00:00+00:00,0.0
2024-07-10 13:00:00+00:00,0.0
2024-07-10 14:00:00+00:00,0.0
2024-07-10 15:00:00+00:00,0.0
2024-07-10 16:00:00+00:00,0.0
2024-07-10 17:00:00+00:00,0.0
2024-07-10 18:00:00+00:00,0.0
2024-07-10 19:00:00+00:00,0.0
2024-07-11 13:00:00+00:00,0.0
2024-07-11 14:00:00+00:00,0.0
2024-07-11 15:00:00+00:00,0.0
2024-07-11 16:00:00+00:00,0.0
2024-07-11 17:00:00+00:00,0.0
2024-07-11 18:00:00+00:00,0.0
2024-07-12 13:00:00+00:00,0.0
2024-07-12 14:00:00+00:00,0.0
2024-07-12 16:00:00+00:00,0.0
2024-07-15 14:00:00+00:00,0.0
2024-07-15 15:00:00+00:00,0.0
2024-07-15 16:00:00+00:00,0.0
2024-07-15 17:00:00+00:00,0.0
2024-07-15 18:00:00+00:00,0.0
2024-07-15 19:00:00+00:00,0.0
2024-07-16 13:00:00+00:00,0.0
2024-07-16 14:00:00+00:00,0.0
2024-07-16 17:00:00+00:00,0.0
2024-07-16 18:00:00+00:00,0.0
2024-07-16 19:00:00+00:00,0.0
2024-07-17 13:00:00+00:00,0.0
2024-07-17 14:00:00+00:00,0.0
2024-07-17 16:00:00+00:00,0.0
2024-07-17 17:00:00+00:00,0.0
2024-07-17 18:00:00+00:00,0.0
2024-07-17 19:00:00+00:00,0.0
2024-07-18 13:00:00+00:00,0.0
2024-07-18 14:00:00+00:00,0.0
2024-07-18 18:00:00+00:00,0.0
2024-07-18 19:00:00+00:00,0.0
2024-07-19 13:00:00+00:00,0.0
2024-07-19 14:00:00+00:00,0.0
2024-07-19 15:00:00+00:00,0.0
2024-07-19 17:00:00+00:00,0.0
2024-07-19 19:00:00+00:00,0.0
2024-07-22 13:00:00+00:00,0.0
2024-07-22 14:00:00+00:00,0.0
2024-07-22 15:00:00+00:00,0.0
2024-07-22 18:00:00+00:00,0.0
2024-07-22 19:00:00+00:00,0.0
2024-07-23 13:00:00+00:00,0.0
2024-07-23 15:00:00+00:00,0.0
2024-07-23 18:00:00+00:00,0.0
2024-07-23 19:00:00+00:00,0.0
2024-07-24 13:00:00+00:00,0.0
2024-07-24 14:00:00+00:00,0.0
2024-07-24 15:00:00+00:00,0.0
2024-07-24 16:00:00+00:00,0.0
2024-07-24 17:00:00+00:00,0.0
2024-07-24 18:00:00+00:00,0.0
2024-07-24 19:00:00+00:00,0.0
2024-07-25 13:00:00+00:00,0.0
2024-07-25 14:00:00+00:00,0.0
2024-07-25 15:00:00+00:00,0.0
2024-07-25 16:00:00+00:00,0.0
2024-07-25 17:00:00+00:00,0.0
2024-07-25 18:00:00+00:00,0.0
2024-07-25 19:00:00+00:00,0.0
2024-07-26 13:00:00+00:00,0.0
2024-07-26 14:00:00+00:00,0.0
2024-07-26 15:00:00+00:00,0.0
2024-07-26 16:00:00+00:00,0.0
2024-07-26 17:00:00+00:00,0.0
2024-07-26 18:00:00+00:00,0.0
2024-07-26 19:00:00+00:00,0.0
2024-07-29 13:00:00+00:00,0.0
2024-07-29 14:00:00+00:00,0.0
2024-07-29 15:00:00+00:00,0.0
2024-07-29 16:00:00+00:00,0.0
2024-07-29 18:00:00+00:00,0.0
2024-07-30 13:00:00+00:00,0.0
2024-07-30 14:00:00+00:00,0.0
2024-07-30 15:00:00+00:00,0.0
2024-07-30 16:00:00+00:00,0.0
2024-07-30 17:00:00+00:00,0.0
2024-07-30 18:00:00+00:00,0.0
2024-07-30 19:00:00+00:00,0.0
2024-07-31 13:00:00+00:00,0.0
2024-07-31 14:00:00+00:00,0.0
2024-07-31 16:00:00+00:00,0.0
2024-07-31 17:00:00+00:00,0.0
2024-07-31 18:00:00+00:00,0.0
2024-07-31 19:00:00+00:00,0.0
2024-08-01 13:00:00+00:00,0.0
2024-08-01 14:00:00+00:00,0.0
2024-08-01 15:00:00+00:00,0.0
2024-08-01 16:00:00+00:00,0.0
2024-08-01 17:00:00+00:00,0.0
2024-08-01 18:00:00+00:00,0.0
2024-08-01 19:00:00+00:00,0.0
2024-08-02 13:00:00+00:00,0.0
2024-08-02 14:00:00+00:00,0.0
2024-08-02 15:00:00+00:00,0.0
2024-08-02 16:00:00+00:00,0.0
2024-08-02 17:00:00+00:00,0.0
2024-08-02 19:00:00+00:00,0.0
2024-08-05 13:00:00+00:00,-180.91575839453617
2024-08-05 14:00:00+00:00,-123.8708315019237
2024-08-05 15:00:00+00:00,-116.00690230812143
2024-08-05 16:00:00+00:00,-152.22232089217505
2024-08-05 17:00:00+00:00,-144.8613415316067
2024-08-05 18:00:00+00:00,-180.69608001579545
2024-08-05 19:00:00+00:00,-195.75040781421424
2024-08-06 13:00:00+00:00,-179.7666956776314
2024-08-06 14:00:00+00:00,-245.1317440019385
2024-08-06 15:00:00+00:00,-259.7084320742721
2024-08-06 16:00:00+00:00,-253.9327827718107
2024-08-06 17:00:00+00:00,-241.38668612675673
2024-08-06 18:00:00+00:00,-266.2287025821782
2024-08-06 19:00:00+00:00,-295.81300035917224
2024-08-07 13:00:00+00:00,-195.92976760725628
2024-08-07 14:00:00+00:00,-219.4142149306837
2024-08-07 15:00:00+00:00,-262.2164616342907
2024-08-07 16:00:00+00:00,-287.88778728132985
2024-08-07 17:00:00+00:00,-325.64424323598496
2024-08-07 19:00:00+00:00,-324.19996389826053
2024-08-08 13:00:00+00:00,-251.37238476839167
2024-08-08 14:00:00+00:00,-251.70802466628382
2024-08-08 15:00:00+00:00,-246.72465697936147
2024-08-08 16:00:00+00:00,-251.35285230332454
2024-08-08 17:00:00+00:00,-262.05525831982203
2024-08-08 18:00:00+00:00,-259.53668130459545
2024-08-08 19:00:00+00:00,-296.5508252455139
2024-08-09 13:00:00+00:00,-257.2615701837519
2024-08-09 14:00:00+00:00,-259.8795978370857
2024-08-09 15:00:00+00:00,-275.634254153447
2024-08-09 16:00:00+00:00,-262.61500490970155
2024-08-09 17:00:00+00:00,-285.1708939967524
2024-08-09 18:00:00+00:00,-282.51700878106567
2024-08-12 14:00:00+00:00,-316.7042613440944
2024-08-12 16:00:00+00:00,-294.35559717555503
2024-08-12 17:00:00+00:00,-317.4345886899231
2024-08-12 18:00:00+00:00,-313.9382704367292
2024-08-12 19:00:00+00:00,-323.5054941147845
2024-08-13 13:00:00+00:00,-340.99930247775416
2024-08-13 16:00:00+00:00,-292.99303709102054
2024-08-13 18:00:00+00:00,-288.1392195085445
2024-08-13 19:00:00+00:00,-298.3205611268713
2024-08-14 13:00:00+00:00,-300.93800377334287
2024-08-14 14:00:00+00:00,-297.6748055526668
2024-08-14 15:00:00+00:00,-295.07576047969593
2024-08-14 18:00:00+00:00,-247.96629480268453
2024-08-14 19:00:00+00:00,-261.5395372184741
2024-08-15 13:00:00+00:00,-207.44559206333906
2024-08-15 14:00:00+00:00,-190.6472219042251
2024-08-15 16:00:00+00:00,-147.1933608919474
2024-08-15 17:00:00+00:00,-164.31182848828846
2024-08-15 18:00:00+00:00,-167.92505736844697
2024-08-16 13:00:00+00:00,-217.00648821460888
2024-08-16 14:00:00+00:00,-201.4490943684142
2024-08-16 15:00:00+00:00,-198.51609302534183
2024-08-16 17:00:00+00:00,-194.22928194277023
2024-08-16 18:00:00+00:00,-184.649670410118
2024-08-16 19:00:00+00:00,-165.5405331611517
2024-08-19 13:00:00+00:00,-147.4633852687384
2024-08-19 14:00:00+00:00,-121.50879518447348
2024-08-19 19:00:00+00:00,-98.95779641150845
2024-08-20 13:00:00+00:00,-82.24189042565511
2024-08-20 15:00:00+00:00,-80.47136794408875
2024-08-20 17:00:00+00:00,-96.88396609590704
2024-08-20 18:00:00+00:00,-82.84956462459648
2024-08-21 13:00:00+00:00,7.124581715957532
2024-08-21 14:00:00+00:00,19.646422053049704
2024-08-21 15:00:00+00:00,17.718175462450336
2024-08-21 16:00:00+00:00,32.05905089703425
2024-08-21 17:00:00+00:00,34.89801232163595
2024-08-21 19:00:00+00:00,40.563194738462
2024-08-22 13:00:00+00:00,24.48355067078785
2024-08-22 14:00:00+00:00,23.28496104035312
2024-08-22 15:00:00+00:00,44.32945900691184
2024-08-22 17:00:00+00:00,54.62818004452328
2024-08-22 19:00:00+00:00,77.40702512240551
2024-08-23 13:00:00+00:00,89.2631588845524
2024-08-23 14:00:00+00:00,116.748564182751
2024-08-23 15:00:00+00:00,70.54603579086526
2024-08-23 16:00:00+00:00,77.62421248926192
2024-08-23 17:00:00+00:00,72.81950810566383
2024-08-23 18:00:00+00:00,94.68830873520915
2024-08-26 13:00:00+00:00,135.6139875933834
2024-08-26 14:00:00+00:00,105.21218347250812
2024-08-26 15:00:00+00:00,117.1336074636139
2024-08-26 18:00:00+00:00,114.62570137660711
2024-08-26 19:00:00+00:00,104.31537908460592
2024-08-27 13:00:00+00:00,129.2503170580047
2024-08-27 14:00:00+00:00,121.84609880911245
2024-08-27 16:00:00+00:00,124.3963134582736
2024-08-27 19:00:00+00:00,130.03723956713483
2024-08-28 16:00:00+00:00,182.5739735910764
2024-08-28 17:00:00+00:00,148.89658339493016
2024-08-28 19:00:00+00:00,177.74442789265348
2024-08-29 13:00:00+00:00,226.605126560892
2024-08-29 14:00:00+00:00,228.76174635599884
2024-08-29 15:00:00+00:00,233.4116403176576
2024-08-29 16:00:00+00:00,244.1901014212497
2024-08-29 17:00:00+00:00,240.04170006706292
2024-08-29 19:00:00+00:00,231.0536743515655
2024-08-30 13:00:00+00:00,323.60463167669326
2024-08-30 14:00:00+00:00,323.60463167669326
2024-08-30 16:00:00+00:00,323.60463167669326
2024-08-30 19:00:00+00:00,323.60463167669326
2024-09-03 13:00:00+00:00,323.60463167669326
2024-09-03 14:00:00+00:00,323.60463167669326
2024-09-03 16:00:00+00:00,323.60463167669326
2024-09-03 17:00:00+00:00,323.60463167669326
2024-09-03 19:00:00+00:00,323.60463167669326
2024-09-04 13:00:00+00:00,323.60463167669326
2024-09-04 14:00:00+00:00,323.60463167669326
2024-09-04 19:00:00+00:00,323.60463167669326
2024-09-05 13:00:00+00:00,323.60463167669326
2024-09-05 14:00:00+00:00,323.60463167669326
2024-09-05 15:00:00+00:00,323.60463167669326
2024-09-05 16:00:00+00:00,323.60463167669326
2024-09-05 17:00:00+00:00,323.60463167669326
2024-09-05 19:00:00+00:00,323.60463167669326
2024-09-06 13:00:00+00:00,323.60463167669326
2024-09-06 14:00:00+00:00,323.60463167669326
2024-09-06 16:00:00+00:00,323.60463167669326
2024-09-06 18:00:00+00:00,323.60463167669326
2024-09-06 19:00:00+00:00,323.60463167669326
2024-09-09 13:00:00+00:00,323.60463167669326
2024-09-09 14:00:00+00:00,323.60463167669326
2024-09-09 15:00:00+00:00,323.60463167669326
2024-09-09 17:00:00+00:00,323.60463167669326
2024-09-09 18:00:00+00:00,323.60463167669326
2024-09-09 19:00:00+00:00,323.60463167669326
2024-09-10 13:00:00+00:00,323.60463167669326
2024-09-10 14:00:00+00:00,323.60463167669326
2024-09-10 15:00:00+00:00,323.60463167669326
2024-09-10 17:00:00+00:00,323.60463167669326
2024-09-10 18:00:00+00:00,323.60463167669326
2024-09-10 19:00:00+00:00,323.60463167669326
2024-09-11 13:00:00+00:00,323.60463167669326
2024-09-11 14:00:00+00:00,323.60463167669326
2024-09-11 15:00:00+00:00,323.60463167669326
2024-09-11 16:00:00+00:00,323.60463167669326
2024-09-11 19:00:00+00:00,323.60463167669326
2024-09-12 13:00:00+00:00,323.60463167669326
2024-09-12 14:00:00+00:00,323.60463167669326
2024-09-12 15:00:00+00:00,323.60463167669326
2024-09-12 16:00:00+00:00,323.60463167669326
2024-09-12 17:00:00+00:00,323.60463167669326
2024-09-12 18:00:00+00:00,323.60463167669326
2024-09-12 19:00:00+00:00,323.60463167669326
2024-09-13 13:00:00+00:00,323.60463167669326
2024-09-13 14:00:00+00:00,323.60463167669326
2024-09-13 15:00:00+00:00,323.60463167669326
2024-09-16 13:00:00+00:00,323.60463167669326
2024-09-16 14:00:00+00:00,323.60463167669326
2024-09-16 15:00:00+00:00,323.60463167669326
2024-09-16 16:00:00+00:00,323.60463167669326
2024-09-16 17:00:00+00:00,323.60463167669326
2024-09-16 18:00:00+00:00,323.60463167669326
2024-09-16 19:00:00+00:00,323.60463167669326
2024-09-17 13:00:00+00:00,323.60463167669326
2024-09-17 14:00:00+00:00,323.60463167669326
2024-09-17 16:00:00+00:00,323.60463167669326
2024-09-17 18:00:00+00:00,323.60463167669326
2024-09-17 19:00:00+00:00,323.60463167669326
2024-09-18 13:00:00+00:00,323.60463167669326
2024-09-18 14:00:00+00:00,323.60463167669326
2024-09-18 15:00:00+00:00,323.60463167669326
2024-09-18 17:00:00+00:00,323.60463167669326
2024-09-18 18:00:00+00:00,323.60463167669326
2024-09-18 19:00:00+00:00,323.60463167669326
2024-09-19 13:00:00+00:00,323.60463167669326
2024-09-19 14:00:00+00:00,323.60463167669326
2024-09-19 15:00:00+00:00,323.60463167669326
2024-09-19 17:00:00+00:00,323.60463167669326
2024-09-19 18:00:00+00:00,323.60463167669326
2024-09-20 13:00:00+00:00,323.60463167669326
2024-09-20 18:00:00+00:00,323.60463167669326
2024-09-20 19:00:00+00:00,323.60463167669326
2024-09-23 13:00:00+00:00,323.60463167669326
2024-09-23 14:00:00+00:00,323.60463167669326
2024-09-23 15:00:00+00:00,323.60463167669326
2024-09-23 16:00:00+00:00,323.60463167669326
2024-09-23 18:00:00+00:00,323.60463167669326
2024-09-23 19:00:00+00:00,323.60463167669326
2024-09-24 13:00:00+00:00,323.60463167669326
2024-09-24 14:00:00+00:00,323.60463167669326
2024-09-24 15:00:00+00:00,323.60463167669326
2024-09-24 18:00:00+00:00,323.60463167669326
2024-09-24 19:00:00+00:00,323.60463167669326
2024-09-25 13:00:00+00:00,323.60463167669326
2024-09-25 14:00:00+00:00,323.60463167669326
2024-09-25 16:00:00+00:00,323.60463167669326
2024-09-25 18:00:00+00:00,323.60463167669326
2024-09-26 13:00:00+00:00,323.60463167669326
2024-09-26 14:00:00+00:00,323.60463167669326
2024-09-26 15:00:00+00:00,323.60463167669326
2024-09-26 16:00:00+00:00,323.60463167669326
2024-09-26 17:00:00+00:00,323.60463167669326
2024-09-26 18:00:00+00:00,323.60463167669326
2024-09-26 19:00:00+00:00,323.60463167669326
2024-09-27 13:00:00+00:00,323.60463167669326
2024-09-27 14:00:00+00:00,323.60463167669326
2024-09-27 16:00:00+00:00,323.60463167669326
2024-09-27 17:00:00+00:00,323.60463167669326
2024-09-27 18:00:00+00:00,323.60463167669326
2024-09-27 19:00:00+00:00,323.60463167669326
2024-09-30 13:00:00+00:00,323.60463167669326
2024-09-30 14:00:00+00:00,323.60463167669326
2024-09-30 15:00:00+00:00,323.60463167669326
2024-09-30 16:00:00+00:00,323.60463167669326
2024-09-30 17:00:00+00:00,323.60463167669326
2024-09-30 19:00:00+00:00,323.60463167669326
2024-10-01 13:00:00+00:00,323.60463167669326
2024-10-01 14:00:00+00:00,323.60463167669326
2024-10-01 15:00:00+00:00,323.60463167669326
2024-10-01 16:00:00+00:00,323.60463167669326
2024-10-01 17:00:00+00:00,323.60463167669326
2024-10-01 19:00:00+00:00,323.60463167669326
2024-10-02 13:00:00+00:00,323.60463167669326
2024-10-02 14:00:00+00:00,323.60463167669326
2024-10-02 15:00:00+00:00,323.60463167669326
2024-10-02 16:00:00+00:00,323.60463167669326
2024-10-02 18:00:00+00:00,323.60463167669326
2024-10-02 19:00:00+00:00,323.60463167669326
2024-10-03 13:00:00+00:00,323.60463167669326
2024-10-03 19:00:00+00:00,323.60463167669326
2024-10-04 13:00:00+00:00,323.60463167669326
2024-10-04 15:00:00+00:00,323.60463167669326
2024-10-04 16:00:00+00:00,323.60463167669326
2024-10-04 17:00:00+00:00,323.60463167669326
2024-10-04 18:00:00+00:00,323.60463167669326
2024-10-04 19:00:00+00:00,323.60463167669326
2024-10-07 13:00:00+00:00,323.60463167669326
2024-10-07 14:00:00+00:00,323.60463167669326
2024-10-07 16:00:00+00:00,323.60463167669326
2024-10-07 18:00:00+00:00,323.60463167669326
2024-10-08 13:00:00+00:00,323.60463167669326
2024-10-08 14:00:00+00:00,323.60463167669326
2024-10-08 15:00:00+00:00,323.60463167669326
2024-10-08 16:00:00+00:00,323.60463167669326
2024-10-08 17:00:00+00:00,323.60463167669326
2024-10-09 13:00:00+00:00,323.60463167669326
2024-10-09 14:00:00+00:00,323.60463167669326
2024-10-09 16:00:00+00:00,323.60463167669326
2024-10-10 13:00:00+00:00,323.60463167669326
2024-10-10 14:00:00+00:00,323.60463167669326
2024-10-10 15:00:00+00:00,323.60463167669326
2024-10-10 16:00:00+00:00,323.60463167669326
2024-10-11 13:00:00+00:00,323.60463167669326
2024-10-11 17:00:00+00:00,323.60463167669326
2024-10-14 13:00:00+00:00,323.60463167669326
2024-10-14 14:00:00+00:00,323.60463167669326
2024-10-14 15:00:00+00:00,323.60463167669326
2024-10-14 18:00:00+00:00,323.60463167669326
2024-10-14 19:00:00+00:00,323.60463167669326
2024-10-15 13:00:00+00:00,323.60463167669326
2024-10-15 14:00:00+00:00,323.60463167669326
2024-10-15 16:00:00+00:00,323.60463167669326
2024-10-15 17:00:00+00:00,323.60463167669326
2024-10-15 18:00:00+00:00,323.60463167669326
2024-10-16 13:00:00+00:00,323.60463167669326
2024-10-16 14:00:00+00:00,323.60463167669326
2024-10-16 15:00:00+00:00,323.60463167669326
2024-10-16 17:00:00+00:00,323.60463167669326
2024-10-16 19:00:00+00:00,323.60463167669326
2024-10-17 14:00:00+00:00,323.60463167669326
2024-10-17 17:00:00+00:00,323.60463167669326
2024-10-17 19:00:00+00:00,323.60463167669326
2024-10-18 13:00:00+00:00,323.60463167669326
2024-10-18 14:00:00+00:00,323.60463167669326
2024-10-18 15:00:00+00:00,323.60463167669326
2024-10-18 16:00:00+00:00,323.60463167669326
2024-10-18 18:00:00+00:00,323.60463167669326
2024-10-18 19:00:00+00:00,323.60463167669326
2024-10-21 14:00:00+00:00,323.60463167669326
2024-10-21 15:00:00+00:00,323.60463167669326
2024-10-21 16:00:00+00:00,323.60463167669326
2024-10-21 17:00:00+00:00,323.60463167669326
2024-10-21 18:00:00+00:00,323.60463167669326
2024-10-21 19:00:00+00:00,323.60463167669326
2024-10-22 13:00:00+00:00,323.60463167669326
2024-10-22 14:00:00+00:00,323.60463167669326
2024-10-22 16:00:00+00:00,323.60463167669326
2024-10-22 17:00:00+00:00,323.60463167669326
2024-10-22 18:00:00+00:00,323.60463167669326
2024-10-22 19:00:00+00:00,323.60463167669326
2024-10-23 13:00:00+00:00,323.60463167669326
2024-10-23 14:00:00+00:00,323.60463167669326
2024-10-23 15:00:00+00:00,323.60463167669326
2024-10-23 16:00:00+00:00,323.60463167669326
2024-10-23 17:00:00+00:00,323.60463167669326
2024-10-23 18:00:00+00:00,323.60463167669326
2024-10-23 19:00:00+00:00,323.60463167669326
2024-10-24 13:00:00+00:00,323.60463167669326
2024-10-24 14:00:00+00:00,323.60463167669326
2024-10-24 15:00:00+00:00,323.60463167669326
2024-10-24 16:00:00+00:00,323.60463167669326
2024-10-24 17:00:00+00:00,323.60463167669326
2024-10-24 18:00:00+00:00,323.60463167669326
2024-10-25 13:00:00+00:00,323.60463167669326
2024-10-25 15:00:00+00:00,323.60463167669326
2024-10-25 16:00:00+00:00,323.60463167669326
2024-10-25 19:00:00+00:00,323.60463167669326
2024-10-28 13:00:00+00:00,323.60463167669326
2024-10-28 14:00:00+00:00,323.60463167669326
2024-10-28 15:00:00+00:00,323.60463167669326
2024-10-28 16:00:00+00:00,323.60463167669326
2024-10-28 17:00:00+00:00,323.60463167669326
2024-10-28 18:00:00+00:00,323.60463167669326
2024-10-28 19:00:00+00:00,323.60463167669326
2024-10-29 13:00:00+00:00,323.60463167669326
2024-10-29 14:00:00+00:00,323.60463167669326
2024-10-29 15:00:00+00:00,323.60463167669326
2024-10-29 16:00:00+00:00,323.60463167669326
2024-10-29 17:00:00+00:00,323.60463167669326
2024-10-29 18:00:00+00:00,323.60463167669326
2024-10-29 19:00:00+00:00,323.60463167669326
2024-10-30 13:00:00+00:00,323.60463167669326
2024-10-30 14:00:00+00:00,323.60463167669326
2024-10-30 15:00:00+00:00,323.60463167669326
2024-10-30 16:00:00+00:00,323.60463167669326
2024-10-30 17:00:00+00:00,323.60463167669326
2024-10-30 18:00:00+00:00,323.60463167669326
2024-10-30 19:00:00+00:00,323.60463167669326
2024-10-31 13:00:00+00:00,323.60463167669326
2024-10-31 15:00:00+00:00,323.60463167669326
2024-10-31 18:00:00+00:00,323.60463167669326
2024-10-31 19:00:00+00:00,323.60463167669326
2024-11-01 13:00:00+00:00,323.60463167669326
2024-11-01 15:00:00+00:00,323.60463167669326
2024-11-01 17:00:00+00:00,323.60463167669326
2024-11-01 18:00:00+00:00,323.60463167669326
2024-11-01 19:00:00+00:00,323.60463167669326
2024-11-04 14:00:00+00:00,323.60463167669326
2024-11-04 16:00:00+00:00,323.60463167669326
2024-11-04 18:00:00+00:00,323.60463167669326
2024-11-04 19:00:00+00:00,323.60463167669326
2024-11-04 20:00:00+00:00,323.60463167669326
2024-11-05 14:00:00+00:00,323.60463167669326
2024-11-05 15:00:00+00:00,323.60463167669326
2024-11-05 16:00:00+00:00,323.60463167669326
2024-11-05 18:00:00+00:00,323.60463167669326
2024-11-05 19:00:00+00:00,323.60463167669326
2024-11-05 20:00:00+00:00,323.60463167669326
2024-11-06 14:00:00+00:00,323.60463167669326
2024-11-06 15:00:00+00:00,323.60463167669326
2024-11-06 16:00:00+00:00,323.60463167669326
2024-11-06 17:00:00+00:00,323.60463167669326
2024-11-06 19:00:00+00:00,323.60463167669326
2024-11-06 20:00:00+00:00,323.60463167669326
2024-11-07 14:00:00+00:00,323.60463167669326
2024-11-07 15:00:00+00:00,323.60463167669326
2024-11-07 17:00:00+00:00,323.60463167669326
2024-11-07 18:00:00+00:00,323.60463167669326
2024-11-07 19:00:00+00:00,323.60463167669326
2024-11-08 14:00:00+00:00,323.60463167669326
2024-11-08 15:00:00+00:00,323.60463167669326
2024-11-08 16:00:00+00:00,323.60463167669326
2024-11-08 17:00:00+00:00,323.60463167669326
2024-11-08 18:00:00+00:00,323.60463167669326
2024-11-08 19:00:00+00:00,323.60463167669326
2024-11-08 20:00:00+00:00,323.60463167669326
2024-11-11 14:00:00+00:00,323.60463167669326
2024-11-11 15:00:00+00:00,323.60463167669326
2024-11-11 18:00:00+00:00,323.60463167669326
2024-11-11 19:00:00+00:00,323.60463167669326
2024-11-11 20:00:00+00:00,323.60463167669326
2024-11-12 14:00:00+00:00,323.60463167669326
2024-11-12 15:00:00+00:00,323.60463167669326
2024-11-12 16:00:00+00:00,323.60463167669326
2024-11-12 17:00:00+00:00,323.60463167669326
2024-11-12 18:00:00+00:00,323.60463167669326
2024-11-12 19:00:00+00:00,323.60463167669326
2024-11-12 20:00:00+00:00,323.60463167669326
2024-11-13 14:00:00+00:00,323.60463167669326
2024-11-13 15:00:00+00:00,323.60463167669326
2024-11-13 17:00:00+00:00,323.60463167669326
2024-11-13 18:00:00+00:00,323.60463167669326
2024-11-13 19:00:00+00:00,323.60463167669326
2024-11-13 20:00:00+00:00,323.60463167669326
2024-11-14 15:00:00+00:00,323.60463167669326
2024-11-14 16:00:00+00:00,323.60463167669326
2024-11-14 17:00:00+00:00,323.60463167669326
2024-11-14 18:00:00+00:00,323.60463167669326
2024-11-14 19:00:00+00:00,323.60463167669326
2024-11-14 20:00:00+00:00,323.60463167669326
2024-11-15 14:00:00+00:00,323.60463167669326
2024-11-15 15:00:00+00:00,323.60463167669326
2024-11-15 16:00:00+00:00,323.60463167669326
2024-11-15 17:00:00+00:00,323.60463167669326
2024-11-15 18:00:00+00:00,323.60463167669326
2024-11-15 19:00:00+00:00,323.60463167669326
2024-11-15 20:00:00+00:00,323.60463167669326
2024-11-18 14:00:00+00:00,323.60463167669326
2024-11-18 15:00:00+00:00,323.60463167669326
2024-11-18 17:00:00+00:00,323.60463167669326
2024-11-18 18:00:00+00:00,323.60463167669326
2024-11-18 19:00:00+00:00,323.60463167669326
2024-11-18 20:00:00+00:00,323.60463167669326
2024-11-19 14:00:00+00:00,323.60463167669326
2024-11-19 15:00:00+00:00,323.60463167669326
2024-11-19 16:00:00+00:00,323.60463167669326
2024-11-19 17:00:00+00:00,323.60463167669326
2024-11-19 18:00:00+00:00,323.60463167669326
2024-11-19 19:00:00+00:00,323.60463167669326
2024-11-19 20:00:00+00:00,323.60463167669326
2024-11-20 14:00:00+00:00,323.60463167669326
2024-11-20 15:00:00+00:00,323.60463167669326
2024-11-20 16:00:00+00:00,323.60463167669326
2024-11-20 17:00:00+00:00,323.60463167669326
2024-11-20 18:00:00+00:00,323.60463167669326
2024-11-20 19:00:00+00:00,323.60463167669326
2024-11-20 20:00:00+00:00,323.60463167669326
2024-11-21 14:00:00+00:00,323.60463167669326
2024-11-21 15:00:00+00:00,323.60463167669326
2024-11-21 16:00:00+00:00,323.60463167669326
2024-11-21 17:00:00+00:00,323.60463167669326
2024-11-21 18:00:00+00:00,323.60463167669326
2024-11-21 19:00:00+00:00,323.60463167669326
2024-11-21 20:00:00+00:00,323.60463167669326
2024-11-22 14:00:00+00:00,323.60463167669326
2024-11-22 15:00:00+00:00,323.60463167669326
2024-11-22 16:00:00+00:00,323.60463167669326
2024-11-22 18:00:00+00:00,323.60463167669326
2024-11-22 19:00:00+00:00,323.60463167669326
2024-11-25 14:00:00+00:00,323.60463167669326
2024-11-25 15:00:00+00:00,323.60463167669326
2024-11-25 16:00:00+00:00,323.60463167669326
2024-11-25 17:00:00+00:00,323.60463167669326
2024-11-25 18:00:00+00:00,323.60463167669326
2024-11-25 19:00:00+00:00,323.60463167669326
2024-11-25 20:00:00+00:00,323.60463167669326
2024-11-26 14:00:00+00:00,323.60463167669326
2024-11-26 15:00:00+00:00,323.60463167669326
2024-11-26 16:00:00+00:00,323.60463167669326
2024-11-26 17:00:00+00:00,323.60463167669326
2024-11-26 18:00:00+00:00,323.60463167669326
2024-11-26 19:00:00+00:00,323.60463167669326
2024-11-26 20:00:00+00:00,323.60463167669326
2024-11-27 14:00:00+00:00,323.60463167669326
2024-11-27 15:00:00+00:00,323.60463167669326
2024-11-27 16:00:00+00:00,323.60463167669326
2024-11-27 17:00:00+00:00,323.60463167669326
2024-11-27 18:00:00+00:00,323.60463167669326
2024-11-27 19:00:00+00:00,323.60463167669326
2024-11-27 20:00:00+00:00,323.60463167669326
2024-11-29 14:00:00+00:00,323.60463167669326
2024-11-29 15:00:00+00:00,323.60463167669326
2024-11-29 16:00:00+00:00,323.60463167669326
2024-12-02 14:00:00+00:00,323.60463167669326
2024-12-02 15:00:00+00:00,323.60463167669326
2024-12-02 17:00:00+00:00,323.60463167669326
2024-12-02 18:00:00+00:00,323.60463167669326
2024-12-02 19:00:00+00:00,323.60463167669326
2024-12-02 20:00:00+00:00,323.60463167669326
2024-12-03 14:00:00+00:00,323.60463167669326
2024-12-03 15:00:00+00:00,323.60463167669326
2024-12-03 16:00:00+00:00,323.60463167669326
2024-12-03 17:00:00+00:00,323.60463167669326
2024-12-03 18:00:00+00:00,323.60463167669326
2024-12-03 19:00:00+00:00,323.60463167669326
2024-12-03 20:00:00+00:00,323.60463167669326
2024-12-04 14:00:00+00:00,323.60463167669326
2024-12-04 15:00:00+00:00,323.60463167669326
2024-12-04 16:00:00+00:00,323.60463167669326
2024-12-04 17:00:00+00:00,323.60463167669326
2024-12-04 18:00:00+00:00,323.60463167669326
2024-12-04 19:00:00+00:00,323.60463167669326
2024-12-05 14:00:00+00:00,323.60463167669326
2024-12-05 15:00:00+00:00,323.60463167669326
2024-12-05 16:00:00+00:00,323.60463167669326
2024-12-05 17:00:00+00:00,323.60463167669326
2024-12-05 18:00:00+00:00,323.60463167669326
2024-12-05 19:00:00+00:00,323.60463167669326
2024-12-05 20:00:00+00:00,323.60463167669326
2024-12-06 14:00:00+00:00,323.60463167669326
2024-12-06 15:00:00+00:00,323.60463167669326
2024-12-06 16:00:00+00:00,323.60463167669326
2024-12-06 17:00:00+00:00,323.60463167669326
2024-12-06 18:00:00+00:00,323.60463167669326
2024-12-06 20:00:00+00:00,323.60463167669326
2024-12-09 14:00:00+00:00,255.56573230703145
2024-12-09 15:00:00+00:00,244.8422550259598
2024-12-09 16:00:00+00:00,220.99786713318912
2024-12-09 17:00:00+00:00,212.12969400993475
2024-12-09 19:00:00+00:00,272.5345460165224
2024-12-09 20:00:00+00:00,293.5475946261815
2024-12-10 14:00:00+00:00,408.2453232584618
2024-12-10 15:00:00+00:00,370.3671760839111
2024-12-10 16:00:00+00:00,346.7276390565649
2024-12-10 18:00:00+00:00,339.3389939520331
2024-12-10 19:00:00+00:00,329.2558769708832
2024-12-11 14:00:00+00:00,361.9469986876575
2024-12-11 15:00:00+00:00,373.39375523785867
2024-12-11 16:00:00+00:00,377.58664416074475
2024-12-11 17:00:00+00:00,389.46862980707346
2024-12-11 18:00:00+00:00,438.94976704368946
2024-12-11 19:00:00+00:00,455.26645799711673
2024-12-11 20:00:00+00:00,465.5240125445496
2024-12-12 14:00:00+00:00,433.9735482501117
2024-12-12 15:00:00+00:00,414.62873269352326
2024-12-12 16:00:00+00:00,406.21942288991625
2024-12-12 18:00:00+00:00,396.67088881716
2024-12-12 19:00:00+00:00,382.3457085778235
2024-12-12 20:00:00+00:00,367.24530509102124
2024-12-13 16:00:00+00:00,378.1374657845662
2024-12-13 17:00:00+00:00,385.40331120115275
2024-12-13 19:00:00+00:00,339.40754028917735
2024-12-13 20:00:00+00:00,332.38659986875047
2024-12-16 14:00:00+00:00,290.35812926268386
2024-12-16 15:00:00+00:00,324.3516775287587
2024-12-16 16:00:00+00:00,329.0859850611895
2024-12-16 17:00:00+00:00,338.6635860591174
2024-12-16 18:00:00+00:00,345.46310959936943
2024-12-16 19:00:00+00:00,341.52273033686464
2024-12-16 20:00:00+00:00,377.19881432949126
2024-12-17 14:00:00+00:00,444.09390963207113
2024-12-17 15:00:00+00:00,450.99841301270004
2024-12-17 16:00:00+00:00,442.9956293532619
2024-12-17 17:00:00+00:00,422.0672161645042
2024-12-17 20:00:00+00:00,437.7645760150928
2024-12-18 14:00:00+00:00,401.67288299538154
2024-12-18 15:00:00+00:00,388.0864225332951
2024-12-18 16:00:00+00:00,343.53294241559007
2024-12-18 18:00:00+00:00,373.364694538987
2024-12-18 19:00:00+00:00,394.64936779996486
2024-12-18 20:00:00+00:00,454.23407631181465
2024-12-19 14:00:00+00:00,468.2533392757267
2024-12-19 15:00:00+00:00,479.78279722336123
2024-12-19 16:00:00+00:00,461.204972733792
2024-12-19 17:00:00+00:00,473.94283847917825
2024-12-19 18:00:00+00:00,499.0559651336619
2024-12-19 19:00:00+00:00,492.87685732613875
2024-12-19 20:00:00+00:00,491.98661529214826
2024-12-20 14:00:00+00:00,527.1177209429097
2024-12-20 15:00:00+00:00,480.5210150978397
2024-12-20 16:00:00+00:00,447.5540139939588
2024-12-20 17:00:00+00:00,475.71575022596926
2024-12-20 18:00:00+00:00,471.54427972218207
2024-12-20 19:00:00+00:00,504.95978163117087
2024-12-20 20:00:00+00:00,506.1407633074139
2024-12-23 14:00:00+00:00,547.6685501022151
2024-12-23 15:00:00+00:00,545.8917703084838
2024-12-23 16:00:00+00:00,516.1467556459104
2024-12-23 17:00:00+00:00,519.8925733568129
2024-12-23 18:00:00+00:00,518.1275376210732
2024-12-23 19:00:00+00:00,507.95807651117997
2024-12-23 20:00:00+00:00,508.87710789721314
2024-12-24 14:00:00+00:00,496.8550022270618
2024-12-24 15:00:00+00:00,488.7250251474577
2024-12-24 16:00:00+00:00,474.3748683791629
2024-12-26 14:00:00+00:00,489.23580018328784
2024-12-26 15:00:00+00:00,463.9738809084676
2024-12-26 16:00:00+00:00,474.54420917955554
2024-12-26 17:00:00+00:00,459.44207665352076
2024-12-26 18:00:00+00:00,466.4276552698657
2024-12-26 19:00:00+00:00,467.21314277911057
2024-12-26 20:00:00+00:00,463.1281102900384
2024-12-27 14:00:00+00:00,480.5440680943009
2024-12-27 15:00:00+00:00,490.29167874342056
2024-12-27 16:00:00+00:00,512.6474775085269
2024-12-27 17:00:00+00:00,515.5440013836045
2024-12-27 18:00:00+00:00,505.0761344242974
2024-12-27 19:00:00+00:00,502.8642110047656
2024-12-27 20:00:00+00:00,498.8230755423238
2024-12-30 14:00:00+00:00,558.1997081938039
2024-12-30 15:00:00+00:00,528.0905574479582
2024-12-30 16:00:00+00:00,517.9328403960566
2024-12-30 17:00:00+00:00,525.1558489744438
2024-12-30 18:00:00+00:00,527.0033033378797
2024-12-30 19:00:00+00:00,527.7226190325753
2024-12-30 20:00:00+00:00,535.9381534958778
2024-12-31 14:00:00+00:00,544.5875538247732
2024-12-31 15:00:00+00:00,547.7957229152084
2024-12-31 16:00:00+00:00,577.5986856865619
2024-12-31 17:00:00+00:00,574.5106627916483
2024-12-31 18:00:00+00:00,590.2554846118776
2024-12-31 19:00:00+00:00,582.0609334481518
2025-01-02 14:00:00+00:00,667.1195374851673
2025-01-02 15:00:00+00:00,667.1195374851673
2025-01-02 16:00:00+00:00,667.1195374851673
2025-01-02 17:00:00+00:00,667.1195374851673
2025-01-02 18:00:00+00:00,667.1195374851673
2025-01-02 19:00:00+00:00,667.1195374851673
2025-01-02 20:00:00+00:00,667.1195374851673
2025-01-03 14:00:00+00:00,667.1195374851673
2025-01-03 15:00:00+00:00,667.1195374851673
2025-01-03 16:00:00+00:00,667.1195374851673
2025-01-03 17:00:00+00:00,667.1195374851673
2025-01-03 18:00:00+00:00,667.1195374851673
2025-01-03 19:00:00+00:00,667.1195374851673
2025-01-03 20:00:00+00:00,667.1195374851673
2025-01-06 14:00:00+00:00,667.1195374851673
2025-01-06 15:00:00+00:00,667.1195374851673
2025-01-06 18:00:00+00:00,667.1195374851673
2025-01-06 19:00:00+00:00,667.1195374851673
2025-01-06 20:00:00+00:00,667.1195374851673
2025-01-07 14:00:00+00:00,667.1195374851673
2025-01-07 15:00:00+00:00,667.1195374851673
2025-01-07 16:00:00+00:00,667.1195374851673
2025-01-07 17:00:00+00:00,667.1195374851673
2025-01-07 18:00:00+00:00,667.1195374851673
2025-01-07 19:00:00+00:00,667.1195374851673
2025-01-07 20:00:00+00:00,667.1195374851673
2025-01-08 14:00:00+00:00,667.1195374851673
2025-01-08 15:00:00+00:00,667.1195374851673
2025-01-08 16:00:00+00:00,667.1195374851673
2025-01-08 17:00:00+00:00,667.1195374851673
2025-01-08 18:00:00+00:00,667.1195374851673
2025-01-08 19:00:00+00:00,667.1195374851673
2025-01-08 20:00:00+00:00,667.1195374851673
2025-01-10 14:00:00+00:00,667.1195374851673
2025-01-10 15:00:00+00:00,667.1195374851673
2025-01-10 16:00:00+00:00,667.1195374851673
2025-01-10 17:00:00+00:00,667.1195374851673
2025-01-10 19:00:00+00:00,667.1195374851673
2025-01-10 20:00:00+00:00,667.1195374851673
2025-01-13 14:00:00+00:00,667.1195374851673
2025-01-13 15:00:00+00:00,667.1195374851673
2025-01-13 16:00:00+00:00,667.1195374851673
2025-01-13 17:00:00+00:00,667.1195374851673
2025-01-13 18:00:00+00:00,667.1195374851673
2025-01-13 19:00:00+00:00,667.1195374851673
2025-01-13 20:00:00+00:00,667.1195374851673
2025-01-14 14:00:00+00:00,667.1195374851673
2025-01-14 15:00:00+00:00,667.1195374851673
2025-01-14 16:00:00+00:00,667.1195374851673
2025-01-14 17:00:00+00:00,667.1195374851673
2025-01-14 18:00:00+00:00,667.1195374851673
2025-01-14 19:00:00+00:00,667.1195374851673
2025-01-14 20:00:00+00:00,667.1195374851673
2025-01-15 14:00:00+00:00,667.1195374851673
2025-01-15 15:00:00+00:00,667.1195374851673
2025-01-15 16:00:00+00:00,667.1195374851673
2025-01-15 18:00:00+00:00,667.1195374851673
2025-01-15 19:00:00+00:00,667.1195374851673
2025-01-15 20:00:00+00:00,667.1195374851673
2025-01-16 14:00:00+00:00,667.1195374851673
2025-01-16 15:00:00+00:00,667.1195374851673
2025-01-16 16:00:00+00:00,667.1195374851673
2025-01-16 17:00:00+00:00,667.1195374851673
2025-01-16 19:00:00+00:00,667.1195374851673
2025-01-16 20:00:00+00:00,667.1195374851673
2025-01-17 14:00:00+00:00,667.1195374851673
2025-01-17 15:00:00+00:00,667.1195374851673
2025-01-17 16:00:00+00:00,667.1195374851673
2025-01-17 18:00:00+00:00,667.1195374851673
2025-01-17 19:00:00+00:00,667.1195374851673
2025-01-17 20:00:00+00:00,667.1195374851673
2025-01-21 14:00:00+00:00,667.1195374851673
2025-01-21 15:00:00+00:00,667.1195374851673
2025-01-21 16:00:00+00:00,667.1195374851673
2025-01-21 17:00:00+00:00,667.1195374851673
2025-01-21 19:00:00+00:00,667.1195374851673
2025-01-21 20:00:00+00:00,667.1195374851673
2025-01-22 14:00:00+00:00,667.1195374851673
2025-01-22 16:00:00+00:00,667.1195374851673
2025-01-22 17:00:00+00:00,667.1195374851673
2025-01-22 19:00:00+00:00,667.1195374851673
2025-01-22 20:00:00+00:00,667.1195374851673
2025-01-23 14:00:00+00:00,667.1195374851673
2025-01-23 15:00:00+00:00,667.1195374851673
2025-01-23 16:00:00+00:00,667.1195374851673
2025-01-23 17:00:00+00:00,667.1195374851673
2025-01-23 18:00:00+00:00,667.1195374851673
2025-01-23 19:00:00+00:00,667.1195374851673
2025-01-23 20:00:00+00:00,667.1195374851673
2025-01-24 14:00:00+00:00,667.1195374851673
2025-01-24 15:00:00+00:00,667.1195374851673
2025-01-24 16:00:00+00:00,667.1195374851673
2025-01-24 17:00:00+00:00,667.1195374851673
2025-01-24 18:00:00+00:00,667.1195374851673
2025-01-24 19:00:00+00:00,667.1195374851673
2025-01-24 20:00:00+00:00,667.1195374851673
2025-01-27 14:00:00+00:00,667.1195374851673
2025-01-27 15:00:00+00:00,667.1195374851673
2025-01-27 16:00:00+00:00,667.1195374851673
2025-01-27 17:00:00+00:00,667.1195374851673
2025-01-27 18:00:00+00:00,667.1195374851673
2025-01-27 19:00:00+00:00,667.1195374851673
2025-01-27 20:00:00+00:00,667.1195374851673
2025-01-28 14:00:00+00:00,667.1195374851673
2025-01-28 15:00:00+00:00,667.1195374851673
2025-01-28 16:00:00+00:00,667.1195374851673
2025-01-28 17:00:00+00:00,667.1195374851673
2025-01-28 18:00:00+00:00,667.1195374851673
2025-01-28 19:00:00+00:00,667.1195374851673
2025-01-29 14:00:00+00:00,667.1195374851673
2025-01-29 15:00:00+00:00,667.1195374851673
2025-01-29 16:00:00+00:00,667.1195374851673
2025-01-29 17:00:00+00:00,667.1195374851673
2025-01-29 18:00:00+00:00,667.1195374851673
2025-01-29 19:00:00+00:00,667.1195374851673
2025-01-29 20:00:00+00:00,667.1195374851673
2025-01-30 14:00:00+00:00,481.70955853370026
2025-01-30 15:00:00+00:00,487.2079622717318
2025-01-30 16:00:00+00:00,497.5616308308887
2025-01-30 18:00:00+00:00,472.32606684942783
2025-01-30 19:00:00+00:00,451.9396212464973
2025-01-30 20:00:00+00:00,475.45083342476363
2025-01-31 14:00:00+00:00,884.4084191102738
2025-01-31 15:00:00+00:00,884.4084191102738
2025-01-31 16:00:00+00:00,884.4084191102738
2025-01-31 17:00:00+00:00,884.4084191102738
2025-01-31 18:00:00+00:00,884.4084191102738
2025-01-31 19:00:00+00:00,884.4084191102738
2025-01-31 20:00:00+00:00,884.4084191102738
2025-02-03 14:00:00+00:00,884.4084191102738
2025-02-03 15:00:00+00:00,884.4084191102738
2025-02-03 16:00:00+00:00,884.4084191102738
2025-02-03 17:00:00+00:00,884.4084191102738
2025-02-03 18:00:00+00:00,884.4084191102738
2025-02-03 19:00:00+00:00,884.4084191102738
2025-02-03 20:00:00+00:00,884.4084191102738
2025-02-04 16:00:00+00:00,884.4084191102738
2025-02-04 18:00:00+00:00,884.4084191102738
2025-02-04 20:00:00+00:00,884.4084191102738
2025-02-05 14:00:00+00:00,884.4084191102738
2025-02-05 15:00:00+00:00,884.4084191102738
2025-02-05 16:00:00+00:00,884.4084191102738
2025-02-05 17:00:00+00:00,884.4084191102738
2025-02-05 19:00:00+00:00,884.4084191102738
2025-02-05 20:00:00+00:00,884.4084191102738
2025-02-06 14:00:00+00:00,884.4084191102738
2025-02-06 15:00:00+00:00,884.4084191102738
2025-02-06 17:00:00+00:00,884.4084191102738
2025-02-06 18:00:00+00:00,884.4084191102738
2025-02-06 19:00:00+00:00,884.4084191102738
2025-02-06 20:00:00+00:00,884.4084191102738
2025-02-07 14:00:00+00:00,884.4084191102738
2025-02-07 15:00:00+00:00,884.4084191102738
2025-02-07 16:00:00+00:00,884.4084191102738
2025-02-07 17:00:00+00:00,884.4084191102738
2025-02-07 19:00:00+00:00,884.4084191102738
2025-02-07 20:00:00+00:00,884.4084191102738
2025-02-10 14:00:00+00:00,884.4084191102738
2025-02-10 15:00:00+00:00,884.4084191102738
2025-02-10 19:00:00+00:00,884.4084191102738
2025-02-10 20:00:00+00:00,884.4084191102738
2025-02-11 14:00:00+00:00,884.4084191102738
2025-02-11 16:00:00+00:00,884.4084191102738
2025-02-11 17:00:00+00:00,884.4084191102738
2025-02-11 19:00:00+00:00,884.4084191102738
2025-02-11 20:00:00+00:00,884.4084191102738
2025-02-12 14:00:00+00:00,884.4084191102738
2025-02-12 15:00:00+00:00,884.4084191102738
2025-02-12 16:00:00+00:00,884.4084191102738
2025-02-12 17:00:00+00:00,884.4084191102738
2025-02-12 18:00:00+00:00,884.4084191102738
2025-02-12 19:00:00+00:00,884.4084191102738
2025-02-12 20:00:00+00:00,884.4084191102738
2025-02-13 14:00:00+00:00,884.4084191102738
2025-02-13 15:00:00+00:00,884.4084191102738
2025-02-13 16:00:00+00:00,884.4084191102738
2025-02-13 17:00:00+00:00,884.4084191102738
2025-02-13 18:00:00+00:00,884.4084191102738
2025-02-13 19:00:00+00:00,884.4084191102738
2025-02-13 20:00:00+00:00,884.4084191102738
2025-02-14 14:00:00+00:00,884.4084191102738
2025-02-14 15:00:00+00:00,884.4084191102738
2025-02-14 16:00:00+00:00,884.4084191102738
2025-02-14 17:00:00+00:00,884.4084191102738
2025-02-14 18:00:00+00:00,884.4084191102738
2025-02-14 19:00:00+00:00,884.4084191102738
2025-02-14 20:00:00+00:00,884.4084191102738
2025-02-18 14:00:00+00:00,884.4084191102738
2025-02-18 15:00:00+00:00,884.4084191102738
2025-02-18 16:00:00+00:00,884.4084191102738
2025-02-18 17:00:00+00:00,884.4084191102738
2025-02-18 18:00:00+00:00,884.4084191102738
2025-02-18 19:00:00+00:00,884.4084191102738
2025-02-18 20:00:00+00:00,884.4084191102738
2025-02-19 14:00:00+00:00,884.4084191102738
2025-02-19 15:00:00+00:00,884.4084191102738
2025-02-19 16:00:00+00:00,884.4084191102738
2025-02-19 17:00:00+00:00,884.4084191102738
2025-02-19 18:00:00+00:00,884.4084191102738
2025-02-19 19:00:00+00:00,884.4084191102738
2025-02-19 20:00:00+00:00,884.4084191102738
2025-02-20 14:00:00+00:00,884.4084191102738
2025-02-20 15:00:00+00:00,884.4084191102738
2025-02-20 16:00:00+00:00,884.4084191102738
2025-02-20 17:00:00+00:00,884.4084191102738
2025-02-20 18:00:00+00:00,884.4084191102738
2025-02-20 19:00:00+00:00,884.4084191102738
2025-02-21 14:00:00+00:00,884.4084191102738
2025-02-21 15:00:00+00:00,884.4084191102738
2025-02-21 16:00:00+00:00,884.4084191102738
2025-02-21 17:00:00+00:00,884.4084191102738
2025-02-21 18:00:00+00:00,884.4084191102738
2025-02-21 19:00:00+00:00,884.4084191102738
2025-02-21 20:00:00+00:00,884.4084191102738
2025-02-24 14:00:00+00:00,884.4084191102738
2025-02-24 15:00:00+00:00,884.4084191102738
2025-02-24 16:00:00+00:00,884.4084191102738
2025-02-24 17:00:00+00:00,884.4084191102738
2025-02-24 18:00:00+00:00,884.4084191102738
2025-02-24 19:00:00+00:00,884.4084191102738
2025-02-24 20:00:00+00:00,884.4084191102738
2025-02-25 14:00:00+00:00,884.4084191102738
2025-02-25 15:00:00+00:00,884.4084191102738
2025-02-25 16:00:00+00:00,884.4084191102738
2025-02-25 17:00:00+00:00,884.4084191102738
2025-02-25 18:00:00+00:00,884.4084191102738
2025-02-25 19:00:00+00:00,884.4084191102738
2025-02-25 20:00:00+00:00,884.4084191102738
2025-02-26 14:00:00+00:00,884.4084191102738
2025-02-26 15:00:00+00:00,884.4084191102738
2025-02-26 16:00:00+00:00,884.4084191102738
2025-02-26 17:00:00+00:00,884.4084191102738
2025-02-26 18:00:00+00:00,884.4084191102738
2025-02-26 19:00:00+00:00,884.4084191102738
2025-02-26 20:00:00+00:00,884.4084191102738
2025-02-27 14:00:00+00:00,884.4084191102738
2025-02-27 15:00:00+00:00,884.4084191102738
2025-02-27 16:00:00+00:00,884.4084191102738
2025-02-27 17:00:00+00:00,884.4084191102738
2025-02-27 18:00:00+00:00,884.4084191102738
2025-02-27 19:00:00+00:00,884.4084191102738
2025-02-27 20:00:00+00:00,884.4084191102738
2025-02-28 14:00:00+00:00,884.4084191102738
2025-02-28 15:00:00+00:00,884.4084191102738
2025-02-28 16:00:00+00:00,884.4084191102738
2025-02-28 17:00:00+00:00,884.4084191102738
2025-02-28 18:00:00+00:00,884.4084191102738
2025-02-28 19:00:00+00:00,884.4084191102738
2025-02-28 20:00:00+00:00,884.4084191102738
2025-03-03 14:00:00+00:00,884.4084191102738
2025-03-03 15:00:00+00:00,884.4084191102738
2025-03-03 16:00:00+00:00,884.4084191102738
2025-03-03 17:00:00+00:00,884.4084191102738
2025-03-03 18:00:00+00:00,884.4084191102738
2025-03-03 19:00:00+00:00,884.4084191102738
2025-03-03 20:00:00+00:00,884.4084191102738
2025-03-04 14:00:00+00:00,884.4084191102738
2025-03-04 15:00:00+00:00,884.4084191102738
2025-03-04 16:00:00+00:00,884.4084191102738
2025-03-04 17:00:00+00:00,884.4084191102738
2025-03-04 18:00:00+00:00,884.4084191102738
2025-03-04 19:00:00+00:00,884.4084191102738
2025-03-04 20:00:00+00:00,884.4084191102738
2025-03-05 14:00:00+00:00,884.4084191102738
2025-03-05 15:00:00+00:00,884.4084191102738
2025-03-05 16:00:00+00:00,884.4084191102738
2025-03-05 17:00:00+00:00,884.4084191102738
2025-03-05 18:00:00+00:00,884.4084191102738
2025-03-05 19:00:00+00:00,884.4084191102738
2025-03-05 20:00:00+00:00,884.4084191102738
2025-03-06 14:00:00+00:00,884.4084191102738
2025-03-06 15:00:00+00:00,884.4084191102738
2025-03-06 16:00:00+00:00,884.4084191102738
2025-03-06 17:00:00+00:00,884.4084191102738
2025-03-06 18:00:00+00:00,884.4084191102738
2025-03-06 19:00:00+00:00,884.4084191102738
2025-03-06 20:00:00+00:00,884.4084191102738
2025-03-07 14:00:00+00:00,884.4084191102738
2025-03-07 15:00:00+00:00,884.4084191102738
2025-03-07 17:00:00+00:00,884.4084191102738
2025-03-07 18:00:00+00:00,884.4084191102738
2025-03-07 19:00:00+00:00,884.4084191102738
2025-03-07 20:00:00+00:00,884.4084191102738
2025-03-10 13:00:00+00:00,884.4084191102738
2025-03-10 14:00:00+00:00,884.4084191102738
2025-03-10 15:00:00+00:00,884.4084191102738
2025-03-10 16:00:00+00:00,884.4084191102738
2025-03-10 17:00:00+00:00,884.4084191102738
2025-03-10 18:00:00+00:00,884.4084191102738
2025-03-10 19:00:00+00:00,884.4084191102738
2025-03-11 13:00:00+00:00,884.4084191102738
2025-03-11 14:00:00+00:00,884.4084191102738
2025-03-11 15:00:00+00:00,884.4084191102738
2025-03-11 16:00:00+00:00,884.4084191102738
2025-03-11 17:00:00+00:00,884.4084191102738
2025-03-11 18:00:00+00:00,884.4084191102738
2025-03-11 19:00:00+00:00,884.4084191102738
2025-03-12 13:00:00+00:00,884.4084191102738
2025-03-12 14:00:00+00:00,884.4084191102738
2025-03-12 15:00:00+00:00,884.4084191102738
2025-03-12 16:00:00+00:00,884.4084191102738
2025-03-12 17:00:00+00:00,884.4084191102738
2025-03-12 18:00:00+00:00,884.4084191102738
2025-03-12 19:00:00+00:00,884.4084191102738
2025-03-13 13:00:00+00:00,884.4084191102738
2025-03-13 14:00:00+00:00,884.4084191102738
2025-03-13 15:00:00+00:00,884.4084191102738
2025-03-13 17:00:00+00:00,884.4084191102738
2025-03-13 18:00:00+00:00,884.4084191102738
2025-03-13 19:00:00+00:00,884.4084191102738
2025-03-14 13:00:00+00:00,884.4084191102738
2025-03-14 14:00:00+00:00,884.4084191102738
2025-03-14 15:00:00+00:00,884.4084191102738
2025-03-14 16:00:00+00:00,884.4084191102738
2025-03-14 17:00:00+00:00,884.4084191102738
2025-03-14 18:00:00+00:00,884.4084191102738
2025-03-14 19:00:00+00:00,884.4084191102738
2025-03-17 13:00:00+00:00,884.4084191102738
2025-03-17 14:00:00+00:00,884.4084191102738
2025-03-17 15:00:00+00:00,884.4084191102738
2025-03-17 16:00:00+00:00,884.4084191102738
2025-03-17 17:00:00+00:00,884.4084191102738
2025-03-17 18:00:00+00:00,884.4084191102738
2025-03-17 19:00:00+00:00,884.4084191102738
2025-03-18 13:00:00+00:00,884.4084191102738
2025-03-18 14:00:00+00:00,884.4084191102738
2025-03-18 15:00:00+00:00,884.4084191102738
2025-03-18 16:00:00+00:00,884.4084191102738
2025-03-18 17:00:00+00:00,884.4084191102738
2025-03-18 18:00:00+00:00,884.4084191102738
2025-03-18 19:00:00+00:00,884.4084191102738
2025-03-19 13:00:00+00:00,884.4084191102738
2025-03-19 14:00:00+00:00,884.4084191102738
2025-03-19 15:00:00+00:00,884.4084191102738
2025-03-19 16:00:00+00:00,884.4084191102738
2025-03-19 17:00:00+00:00,884.4084191102738
2025-03-19 18:00:00+00:00,884.4084191102738
2025-03-19 19:00:00+00:00,884.4084191102738
2025-03-20 13:00:00+00:00,884.4084191102738
2025-03-20 14:00:00+00:00,884.4084191102738
2025-03-20 15:00:00+00:00,884.4084191102738
2025-03-20 16:00:00+00:00,884.4084191102738
2025-03-20 17:00:00+00:00,884.4084191102738
2025-03-20 18:00:00+00:00,884.4084191102738
2025-03-20 19:00:00+00:00,884.4084191102738
2025-03-21 13:00:00+00:00,884.4084191102738
2025-03-21 14:00:00+00:00,884.4084191102738
2025-03-21 15:00:00+00:00,884.4084191102738
2025-03-21 16:00:00+00:00,884.4084191102738
2025-03-21 17:00:00+00:00,884.4084191102738
2025-03-21 18:00:00+00:00,884.4084191102738
2025-03-21 19:00:00+00:00,884.4084191102738
2025-03-24 13:00:00+00:00,884.4084191102738
2025-03-24 14:00:00+00:00,884.4084191102738
2025-03-24 15:00:00+00:00,884.4084191102738
2025-03-24 16:00:00+00:00,884.4084191102738
2025-03-24 17:00:00+00:00,884.4084191102738
2025-03-24 18:00:00+00:00,884.4084191102738
2025-03-24 19:00:00+00:00,884.4084191102738
2025-03-25 13:00:00+00:00,884.4084191102738
2025-03-25 14:00:00+00:00,884.4084191102738
2025-03-25 15:00:00+00:00,884.4084191102738
2025-03-25 16:00:00+00:00,884.4084191102738
2025-03-25 17:00:00+00:00,884.4084191102738
2025-03-25 18:00:00+00:00,884.4084191102738
2025-03-25 19:00:00+00:00,884.4084191102738
2025-03-26 13:00:00+00:00,884.4084191102738
2025-03-26 14:00:00+00:00,884.4084191102738
2025-03-26 15:00:00+00:00,884.4084191102738
2025-03-26 16:00:00+00:00,884.4084191102738
2025-03-26 17:00:00+00:00,884.4084191102738
2025-03-26 18:00:00+00:00,884.4084191102738
2025-03-26 19:00:00+00:00,884.4084191102738
2025-03-27 13:00:00+00:00,884.4084191102738
2025-03-27 14:00:00+00:00,884.4084191102738
2025-03-27 15:00:00+00:00,884.4084191102738
2025-03-27 16:00:00+00:00,884.4084191102738
2025-03-27 17:00:00+00:00,884.4084191102738
2025-03-27 18:00:00+00:00,884.4084191102738
2025-03-27 19:00:00+00:00,884.4084191102738
2025-03-28 13:00:00+00:00,884.4084191102738
2025-03-28 14:00:00+00:00,884.4084191102738
2025-03-28 15:00:00+00:00,884.4084191102738
2025-03-28 16:00:00+00:00,884.4084191102738
2025-03-28 17:00:00+00:00,884.4084191102738
2025-03-28 18:00:00+00:00,884.4084191102738
2025-03-28 19:00:00+00:00,884.4084191102738
2025-03-31 13:00:00+00:00,884.4084191102738
2025-03-31 14:00:00+00:00,884.4084191102738
2025-03-31 15:00:00+00:00,884.4084191102738
2025-03-31 16:00:00+00:00,884.4084191102738
2025-03-31 17:00:00+00:00,884.4084191102738
2025-03-31 18:00:00+00:00,884.4084191102738
2025-03-31 19:00:00+00:00,884.4084191102738
2025-04-01 13:00:00+00:00,884.4084191102738
2025-04-01 14:00:00+00:00,884.4084191102738
2025-04-01 15:00:00+00:00,884.4084191102738
2025-04-01 16:00:00+00:00,884.4084191102738
2025-04-01 17:00:00+00:00,884.4084191102738
2025-04-01 18:00:00+00:00,884.4084191102738
2025-04-01 19:00:00+00:00,884.4084191102738
2025-04-02 13:00:00+00:00,884.4084191102738
2025-04-02 14:00:00+00:00,884.4084191102738
2025-04-02 16:00:00+00:00,884.4084191102738
2025-04-02 17:00:00+00:00,884.4084191102738
2025-04-02 18:00:00+00:00,884.4084191102738
2025-04-02 19:00:00+00:00,884.4084191102738
2025-04-03 13:00:00+00:00,884.4084191102738
2025-04-03 14:00:00+00:00,884.4084191102738
2025-04-03 15:00:00+00:00,884.4084191102738
2025-04-03 16:00:00+00:00,884.4084191102738
2025-04-03 17:00:00+00:00,884.4084191102738
2025-04-03 18:00:00+00:00,884.4084191102738
2025-04-03 19:00:00+00:00,884.4084191102738
2025-04-04 13:00:00+00:00,884.4084191102738
2025-04-04 14:00:00+00:00,884.4084191102738
2025-04-04 15:00:00+00:00,884.4084191102738
2025-04-04 16:00:00+00:00,884.4084191102738
2025-04-04 17:00:00+00:00,884.4084191102738
2025-04-04 18:00:00+00:00,884.4084191102738
2025-04-04 19:00:00+00:00,884.4084191102738
2025-04-07 13:00:00+00:00,884.4084191102738
2025-04-07 14:00:00+00:00,833.2727493464703
2025-04-07 15:00:00+00:00,911.0549269386343
2025-04-07 16:00:00+00:00,932.0464036417062
2025-04-07 17:00:00+00:00,944.6798035932322
2025-04-07 18:00:00+00:00,902.3217746874724
2025-04-07 19:00:00+00:00,905.4327494229689
2025-04-08 13:00:00+00:00,865.9423487889037
2025-04-08 14:00:00+00:00,856.4069943472339
2025-04-08 15:00:00+00:00,828.6545556633641
2025-04-08 16:00:00+00:00,781.338094589559
2025-04-08 17:00:00+00:00,707.838593201552
2025-04-08 18:00:00+00:00,657.1507891445459
2025-04-08 19:00:00+00:00,665.2565586420686
2025-04-09 13:00:00+00:00,767.184488741656
2025-04-09 14:00:00+00:00,777.4886008942105
2025-04-09 15:00:00+00:00,815.6013404019262
2025-04-09 16:00:00+00:00,985.1339408625149
2025-04-09 17:00:00+00:00,1091.8205423245047
2025-04-09 18:00:00+00:00,1100.0808703605046
2025-04-09 19:00:00+00:00,1143.8384909920178
2025-04-10 13:00:00+00:00,1050.6443851806769
2025-04-10 14:00:00+00:00,991.4011503238013
2025-04-10 15:00:00+00:00,903.6550089293997
2025-04-10 16:00:00+00:00,958.7392457638014
2025-04-10 17:00:00+00:00,1062.2142800684167
2025-04-10 18:00:00+00:00,1050.1770330631518
2025-04-10 19:00:00+00:00,1049.488682909091
2025-04-11 13:00:00+00:00,1023.982169942189
2025-04-11 14:00:00+00:00,1045.034404465467
2025-04-11 15:00:00+00:00,1080.2946379123928
2025-04-11 16:00:00+00:00,1092.2209320990032
2025-04-11 17:00:00+00:00,1128.6976256377227
2025-04-11 18:00:00+00:00,1115.4414583357884
2025-04-11 19:00:00+00:00,1105.927199716201
2025-04-14 13:00:00+00:00,1143.4058936824267
2025-04-14 14:00:00+00:00,1144.9117966309473
2025-04-14 15:00:00+00:00,1132.244706667161
2025-04-14 16:00:00+00:00,1094.9313495422668
2025-04-14 17:00:00+00:00,1098.1919537089711
2025-04-14 18:00:00+00:00,1115.735412618299
2025-04-14 19:00:00+00:00,1116.1908597223205
2025-04-15 13:00:00+00:00,1069.0666154882924
2025-04-15 14:00:00+00:00,1078.621043520427
2025-04-15 15:00:00+00:00,1089.0895662108765
2025-04-15 16:00:00+00:00,1081.697385113087
2025-04-15 17:00:00+00:00,1070.7759094902228
2025-04-15 18:00:00+00:00,1088.692272684611
2025-04-15 19:00:00+00:00,1088.3959376073306
2025-04-16 13:00:00+00:00,1036.3933192519987
2025-04-16 14:00:00+00:00,1110.0354538732092
2025-04-16 15:00:00+00:00,1060.6330977185535
2025-04-16 17:00:00+00:00,1013.5597309344586
2025-04-16 18:00:00+00:00,979.6315873691652
2025-04-16 19:00:00+00:00,1020.3159956903057
2025-04-17 13:00:00+00:00,1062.3701081215615
2025-04-17 14:00:00+00:00,1084.842591179757
2025-04-17 15:00:00+00:00,1070.0262163167351
2025-04-17 16:00:00+00:00,1082.1060245379178
2025-04-17 17:00:00+00:00,1115.281427699672
2025-04-17 18:00:00+00:00,1089.2271088040993
2025-04-17 19:00:00+00:00,1079.3702309048008
2025-04-21 13:00:00+00:00,1021.6758497904116
2025-04-21 14:00:00+00:00,1002.5314671344946
2025-04-21 15:00:00+00:00,1005.9667851353017
2025-04-21 16:00:00+00:00,985.449574541018
2025-04-21 17:00:00+00:00,1021.8782922592064
2025-04-21 18:00:00+00:00,1008.6762901801918
2025-04-21 19:00:00+00:00,1028.1966947384244
2025-04-22 13:00:00+00:00,1076.500952638207
2025-04-22 14:00:00+00:00,1112.3872288326652
2025-04-22 15:00:00+00:00,1134.9376211047518
2025-04-22 16:00:00+00:00,1097.1072226529968
2025-04-22 17:00:00+00:00,1111.2674335656218
2025-04-22 18:00:00+00:00,1127.3692563309921
2025-04-22 19:00:00+00:00,1130.4536428549968
2025-04-23 13:00:00+00:00,1251.8825996098558
2025-04-23 14:00:00+00:00,1251.8825996098558
2025-04-23 15:00:00+00:00,1251.8825996098558
2025-04-23 16:00:00+00:00,1251.8825996098558
2025-04-23 17:00:00+00:00,1251.8825996098558
2025-04-23 18:00:00+00:00,1251.8825996098558
2025-04-23 19:00:00+00:00,1251.8825996098558
2025-04-24 13:00:00+00:00,1251.8825996098558
2025-04-24 14:00:00+00:00,1251.8825996098558
2025-04-24 16:00:00+00:00,1251.8825996098558
2025-04-24 17:00:00+00:00,1251.8825996098558
2025-04-24 18:00:00+00:00,1251.8825996098558
2025-04-24 19:00:00+00:00,1251.8825996098558
2025-04-25 13:00:00+00:00,1251.8825996098558
2025-04-25 14:00:00+00:00,1251.8825996098558
2025-04-25 15:00:00+00:00,1251.8825996098558
2025-04-25 16:00:00+00:00,1251.8825996098558
2025-04-25 17:00:00+00:00,1251.8825996098558
2025-04-25 18:00:00+00:00,1251.8825996098558
2025-04-25 19:00:00+00:00,1251.8825996098558
2025-04-28 13:00:00+00:00,1251.8825996098558
2025-04-28 14:00:00+00:00,1251.8825996098558
2025-04-28 15:00:00+00:00,1251.8825996098558
2025-04-28 16:00:00+00:00,1251.8825996098558
2025-04-28 17:00:00+00:00,1251.8825996098558
2025-04-28 18:00:00+00:00,1251.8825996098558
2025-04-28 19:00:00+00:00,1251.8825996098558
2025-04-29 13:00:00+00:00,1251.8825996098558
2025-04-29 14:00:00+00:00,1251.8825996098558
2025-04-29 15:00:00+00:00,1251.8825996098558
2025-04-29 16:00:00+00:00,1251.8825996098558
2025-04-29 17:00:00+00:00,1251.8825996098558
2025-04-29 19:00:00+00:00,1251.8825996098558
2025-04-30 13:00:00+00:00,1251.8825996098558
2025-04-30 14:00:00+00:00,1251.8825996098558
2025-04-30 15:00:00+00:00,1251.8825996098558
2025-04-30 16:00:00+00:00,1251.8825996098558
2025-04-30 17:00:00+00:00,1251.8825996098558
2025-04-30 18:00:00+00:00,1251.8825996098558
2025-05-01 13:00:00+00:00,1251.8825996098558
2025-05-01 14:00:00+00:00,1251.8825996098558
2025-05-01 15:00:00+00:00,1251.8825996098558
2025-05-01 16:00:00+00:00,1251.8825996098558
2025-05-01 17:00:00+00:00,1251.8825996098558
2025-05-01 18:00:00+00:00,1251.8825996098558
2025-05-01 19:00:00+00:00,1251.8825996098558
2025-05-02 13:00:00+00:00,1251.8825996098558
2025-05-02 14:00:00+00:00,1251.8825996098558
2025-05-02 15:00:00+00:00,1251.8825996098558
2025-05-02 16:00:00+00:00,1251.8825996098558
2025-05-02 17:00:00+00:00,1251.8825996098558
2025-05-02 18:00:00+00:00,1251.8825996098558
2025-05-02 19:00:00+00:00,1251.8825996098558
2025-05-05 13:00:00+00:00,1134.0419254851959
2025-05-05 14:00:00+00:00,1130.8199886823948
2025-05-05 15:00:00+00:00,1137.682812491621
2025-05-05 16:00:00+00:00,1147.4528869828696
2025-05-05 17:00:00+00:00,1137.9935603118713
2025-05-05 18:00:00+00:00,1140.2745432857528
2025-05-05 19:00:00+00:00,1140.9122369277281
2025-05-06 13:00:00+00:00,1156.233654782998
2025-05-06 14:00:00+00:00,1196.9310251891152
2025-05-06 15:00:00+00:00,1225.0951821105568
2025-05-06 16:00:00+00:00,1251.5365211785825
2025-05-06 17:00:00+00:00,1247.2011733707513
2025-05-06 18:00:00+00:00,1237.934302522184
2025-05-06 19:00:00+00:00,1236.811953908071
2025-05-07 13:00:00+00:00,1280.6749969972134
2025-05-07 15:00:00+00:00,1308.5607106460243
2025-05-07 17:00:00+00:00,1358.7471084282563
2025-05-07 18:00:00+00:00,1350.5797887674742
2025-05-07 19:00:00+00:00,1321.4892551720927
2025-05-08 13:00:00+00:00,1271.7320806059674
2025-05-08 14:00:00+00:00,1254.1957494419269
2025-05-08 15:00:00+00:00,1264.0422590114742
2025-05-08 16:00:00+00:00,1234.3009050485443
2025-05-08 17:00:00+00:00,1255.3541912172961
2025-05-08 18:00:00+00:00,1244.5206586995191
2025-05-08 19:00:00+00:00,1272.5333728148385
2025-05-09 13:00:00+00:00,1233.752498323323
2025-05-09 14:00:00+00:00,1223.9588397843575
2025-05-09 15:00:00+00:00,1215.108623399061
2025-05-09 16:00:00+00:00,1217.5128427506
2025-05-09 17:00:00+00:00,1231.2116655443383
2025-05-09 18:00:00+00:00,1247.5178702467817
2025-05-09 19:00:00+00:00,1239.7702768169158
2025-05-12 13:00:00+00:00,1108.1932165655144
2025-05-12 14:00:00+00:00,1094.9697665104334
2025-05-12 15:00:00+00:00,1121.0520275213148
2025-05-12 16:00:00+00:00,1096.0097901761378
2025-05-12 17:00:00+00:00,1077.890602139428
2025-05-12 18:00:00+00:00,1074.6318968235153
2025-05-12 19:00:00+00:00,1059.6638847180916
2025-05-13 13:00:00+00:00,1060.3760604229299
2025-05-13 14:00:00+00:00,1037.9564777654948
2025-05-13 15:00:00+00:00,1038.2370218409733
2025-05-13 17:00:00+00:00,1054.8190221263028
2025-05-13 18:00:00+00:00,1041.5355641347937
2025-05-13 19:00:00+00:00,1099.3738995490432
2025-05-14 13:00:00+00:00,1124.9497142407654
2025-05-14 14:00:00+00:00,1145.7063618191064
2025-05-14 15:00:00+00:00,1153.1963097332577
2025-05-14 16:00:00+00:00,1163.561603334927
2025-05-14 17:00:00+00:00,1167.5112408452949
2025-05-14 18:00:00+00:00,1159.4686056384694
2025-05-14 19:00:00+00:00,1152.8131335029009
2025-05-15 13:00:00+00:00,1100.588615542175
2025-05-15 14:00:00+00:00,1076.5810829081634
2025-05-15 15:00:00+00:00,1078.6661969704148
2025-05-15 16:00:00+00:00,1076.4210452559903
2025-05-15 17:00:00+00:00,1066.0168611164281
2025-05-15 18:00:00+00:00,1050.0816380357717
2025-05-15 19:00:00+00:00,1035.5265629355486
2025-05-16 13:00:00+00:00,1042.2331053984617
2025-05-16 14:00:00+00:00,1049.8138017446145
2025-05-16 15:00:00+00:00,1044.682858559997
2025-05-16 16:00:00+00:00,1040.3458903636645
2025-05-16 17:00:00+00:00,1028.6233991087581
2025-05-16 18:00:00+00:00,1004.2535231158187
2025-05-16 19:00:00+00:00,995.962271453328
2025-05-19 13:00:00+00:00,999.3618346998854
2025-05-19 14:00:00+00:00,981.6234708167282
2025-05-19 15:00:00+00:00,973.6685719135571
2025-05-19 16:00:00+00:00,969.1733712549583
2025-05-19 17:00:00+00:00,978.6373665070564
2025-05-19 18:00:00+00:00,988.8826553217043
2025-05-19 19:00:00+00:00,978.0146500311706
2025-05-20 13:00:00+00:00,981.529812335187
2025-05-20 14:00:00+00:00,972.1897490847994
2025-05-20 15:00:00+00:00,978.1384097206814
2025-05-20 16:00:00+00:00,981.1181913496135
2025-05-20 17:00:00+00:00,1001.1014272591405
2025-05-20 18:00:00+00:00,1004.7728549845804
2025-05-20 19:00:00+00:00,981.6569851138945
2025-05-21 13:00:00+00:00,1045.5439983905626
2025-05-21 14:00:00+00:00,1035.5574623043728
2025-05-21 15:00:00+00:00,1016.7914480790971
2025-05-21 16:00:00+00:00,1071.2403319947978
2025-05-21 17:00:00+00:00,1065.5032698888833
2025-05-21 18:00:00+00:00,1071.365884385007
2025-05-21 19:00:00+00:00,1054.44333208777
2025-05-22 13:00:00+00:00,1070.4790490760327
2025-05-22 14:00:00+00:00,1074.1867351861183
2025-05-22 16:00:00+00:00,1057.847200426567
2025-05-22 17:00:00+00:00,1050.1084873195937
2025-05-22 18:00:00+00:00,1027.9222945391434
2025-05-22 19:00:00+00:00,1048.327329068339
2025-05-23 13:00:00+00:00,1117.363459608548
2025-05-23 14:00:00+00:00,1103.0599978365144
2025-05-23 15:00:00+00:00,1098.786781393265
2025-05-23 16:00:00+00:00,1095.5749019014984
2025-05-23 17:00:00+00:00,1098.2951418274756
2025-05-23 18:00:00+00:00,1092.9879416639203
2025-05-23 19:00:00+00:00,1091.250170780808
2025-05-27 13:00:00+00:00,1050.2908068692332
2025-05-27 14:00:00+00:00,1029.776314464763
2025-05-27 15:00:00+00:00,1008.8612621119556
2025-05-27 16:00:00+00:00,1013.2438440297764
2025-05-27 17:00:00+00:00,1005.0014593549784
2025-05-27 18:00:00+00:00,1006.0527389954268
2025-05-27 19:00:00+00:00,1001.1439523383564
2025-05-28 13:00:00+00:00,1021.6711261685642
2025-05-28 14:00:00+00:00,1025.6494033716572
2025-05-28 15:00:00+00:00,1029.2428849056323
2025-05-28 16:00:00+00:00,1034.6837951123898
2025-05-28 17:00:00+00:00,1041.7100735221786
2025-05-28 18:00:00+00:00,1052.7130718516607
2025-05-28 19:00:00+00:00,1064.1089258449888
2025-05-29 13:00:00+00:00,1083.6041022930767
2025-05-29 14:00:00+00:00,1062.0533074142468
2025-05-29 15:00:00+00:00,1055.1810429562818
2025-05-29 16:00:00+00:00,1048.0976830080056
2025-05-29 17:00:00+00:00,1056.7418373806854
2025-05-29 18:00:00+00:00,1044.9941416895647
2025-05-29 19:00:00+00:00,1052.8187859102834
2025-05-30 13:00:00+00:00,1033.344007169889
2025-05-30 14:00:00+00:00,1040.0835743292596
2025-05-30 15:00:00+00:00,1045.8990346268915
2025-05-30 16:00:00+00:00,1030.267816341123
2025-05-30 17:00:00+00:00,1025.7994626745499
2025-05-30 18:00:00+00:00,1008.289111024281
2025-05-30 19:00:00+00:00,995.7508534340686
2025-06-02 13:00:00+00:00,1014.9629734151384
2025-06-02 14:00:00+00:00,1008.3218030938046
2025-06-02 15:00:00+00:00,1024.6125289938725
2025-06-02 16:00:00+00:00,993.3682651148135
2025-06-02 17:00:00+00:00,971.5113909968345
2025-06-02 18:00:00+00:00,980.0412489540478
2025-06-02 19:00:00+00:00,972.9248416840092
2025-06-03 13:00:00+00:00,1009.418616544245
2025-06-03 14:00:00+00:00,1015.3342543831491
2025-06-03 15:00:00+00:00,982.6586526012828
2025-06-03 16:00:00+00:00,964.8455211784187
2025-06-03 17:00:00+00:00,973.4534100776439
2025-06-03 18:00:00+00:00,968.7175023214749
2025-06-03 19:00:00+00:00,956.5071153174326
2025-06-04 13:00:00+00:00,963.9165531511826
2025-06-04 14:00:00+00:00,928.7998050894103
2025-06-04 15:00:00+00:00,925.3939283484692
2025-06-04 16:00:00+00:00,906.6262937346962
2025-06-04 17:00:00+00:00,925.9423350736903
2025-06-04 18:00:00+00:00,934.9636376591893
2025-06-04 19:00:00+00:00,965.6580467367272
2025-06-05 13:00:00+00:00,980.0174718683035
2025-06-05 14:00:00+00:00,977.5623545016189
2025-06-05 15:00:00+00:00,949.2578629613827
2025-06-05 16:00:00+00:00,962.799901369153
2025-06-05 17:00:00+00:00,980.7864147325738
2025-06-05 18:00:00+00:00,994.8181415901781
2025-06-05 19:00:00+00:00,999.0290543566455
2025-06-06 13:00:00+00:00,946.6899208305778
2025-06-06 14:00:00+00:00,939.2697064866958
2025-06-06 15:00:00+00:00,915.1211215985608
2025-06-06 16:00:00+00:00,934.8143428060056
2025-06-06 17:00:00+00:00,931.3829309013928
2025-06-06 18:00:00+00:00,939.2697064866958
2025-06-06 19:00:00+00:00,941.6010641638705
2025-06-09 13:00:00+00:00,958.0737668886587
2025-06-09 14:00:00+00:00,982.0652050077364
2025-06-09 15:00:00+00:00,960.3195814657295
2025-06-09 16:00:00+00:00,944.6866277654545
2025-06-09 17:00:00+00:00,957.5947861232988
2025-06-09 18:00:00+00:00,949.7682134119304
2025-06-09 19:00:00+00:00,964.8126586961741
2025-06-10 13:00:00+00:00,957.1101556759436
2025-06-10 14:00:00+00:00,962.8450621536481
2025-06-10 15:00:00+00:00,988.0577809645905
2025-06-10 16:00:00+00:00,980.9334643364556
2025-06-10 17:00:00+00:00,988.4728150393627
2025-06-10 18:00:00+00:00,981.6828529045009
2025-06-10 19:00:00+00:00,979.8865451749574
2025-06-11 13:00:00+00:00,998.0914712492743
2025-06-11 14:00:00+00:00,1019.4838613536352
2025-06-11 15:00:00+00:00,1015.3601120757702
2025-06-11 16:00:00+00:00,1008.1827393434489
2025-06-11 18:00:00+00:00,1091.0863917032038
2025-06-11 19:00:00+00:00,1110.156361739475
2025-06-12 13:00:00+00:00,1117.1579224043019
2025-06-12 14:00:00+00:00,1126.687811292957
2025-06-12 15:00:00+00:00,1123.3267884517777
2025-06-12 17:00:00+00:00,1119.456427697219
2025-06-12 18:00:00+00:00,1122.8878396018324
2025-06-12 19:00:00+00:00,1127.0987523682998
2025-06-13 13:00:00+00:00,1421.111866398877
2025-06-13 14:00:00+00:00,1421.111866398877
2025-06-13 15:00:00+00:00,1421.111866398877
2025-06-13 16:00:00+00:00,1421.111866398877
2025-06-13 17:00:00+00:00,1421.111866398877
2025-06-13 18:00:00+00:00,1421.111866398877
2025-06-13 19:00:00+00:00,1421.111866398877
2025-06-16 13:00:00+00:00,1421.111866398877
2025-06-16 14:00:00+00:00,1421.111866398877
2025-06-16 15:00:00+00:00,1421.111866398877
2025-06-16 16:00:00+00:00,1421.111866398877
2025-06-16 17:00:00+00:00,1421.111866398877
2025-06-16 18:00:00+00:00,1421.111866398877
2025-06-16 19:00:00+00:00,1421.111866398877
2025-06-17 13:00:00+00:00,1421.111866398877
2025-06-17 14:00:00+00:00,1421.111866398877
2025-06-17 15:00:00+00:00,1421.111866398877
2025-06-17 16:00:00+00:00,1421.111866398877
2025-06-17 17:00:00+00:00,1421.111866398877
2025-06-17 18:00:00+00:00,1421.111866398877
2025-06-17 19:00:00+00:00,1421.111866398877
2025-06-18 13:00:00+00:00,1421.111866398877
2025-06-18 15:00:00+00:00,1421.111866398877
2025-06-18 17:00:00+00:00,1421.111866398877
2025-06-18 18:00:00+00:00,1421.111866398877
2025-06-18 19:00:00+00:00,1421.111866398877
2025-06-20 13:00:00+00:00,1421.111866398877
2025-06-20 14:00:00+00:00,1421.111866398877
2025-06-20 15:00:00+00:00,1421.111866398877
2025-06-20 16:00:00+00:00,1421.111866398877
2025-06-20 18:00:00+00:00,1421.111866398877
2025-06-20 19:00:00+00:00,1421.111866398877
2025-06-23 13:00:00+00:00,1421.111866398877
2025-06-23 14:00:00+00:00,1421.111866398877
2025-06-23 16:00:00+00:00,1329.4955385965127
2025-06-23 17:00:00+00:00,1236.5409777967548
2025-06-23 19:00:00+00:00,1199.498778669127
2025-06-24 13:00:00+00:00,1191.4375055433497
2025-06-24 14:00:00+00:00,1177.188622573398
2025-06-25 13:00:00+00:00,1163.75682920847
2025-06-25 14:00:00+00:00,1176.199840030598
2025-06-25 15:00:00+00:00,1188.9855610769152
2025-06-25 16:00:00+00:00,1188.3562072466764
2025-06-25 17:00:00+00:00,1169.768821282989
2025-06-25 19:00:00+00:00,1133.425740171495
2025-06-26 13:00:00+00:00,1111.610360962243
2025-06-26 14:00:00+00:00,1111.7517492526508
2025-06-26 19:00:00+00:00,1133.714034415849
2025-06-27 13:00:00+00:00,1095.8231473527226
2025-06-27 14:00:00+00:00,1106.1083425471602
2025-06-27 15:00:00+00:00,1067.113010087305
2025-06-27 16:00:00+00:00,1083.3961811329145
2025-06-27 17:00:00+00:00,1101.3907442728685
2025-06-27 18:00:00+00:00,1121.2857362133313
2025-06-27 19:00:00+00:00,1089.2452226511673
2025-06-30 13:00:00+00:00,1081.994007578096
2025-06-30 14:00:00+00:00,1097.5619363073206
2025-06-30 15:00:00+00:00,1118.6708411906307
2025-06-30 16:00:00+00:00,1104.3832316127084
2025-06-30 17:00:00+00:00,1107.0481672017083
2025-06-30 19:00:00+00:00,1067.7302939910005
2025-07-01 13:00:00+00:00,1078.7877530214998
2025-07-01 14:00:00+00:00,1040.7877170678473
2025-07-01 15:00:00+00:00,1015.5132575120801
2025-07-01 16:00:00+00:00,1020.560860497569
2025-07-01 17:00:00+00:00,1033.1727853932452
2025-07-01 18:00:00+00:00,1024.1853656330645
2025-07-01 19:00:00+00:00,1021.721053856841
2025-07-02 13:00:00+00:00,983.5400339030946
2025-07-02 14:00:00+00:00,937.9445646036087
2025-07-02 15:00:00+00:00,973.5059038254985
2025-07-02 16:00:00+00:00,959.4755843495745
2025-07-02 17:00:00+00:00,961.2428936189076
2025-07-02 18:00:00+00:00,973.4725434479647
2025-07-02 19:00:00+00:00,966.8061459927758
2025-07-03 13:00:00+00:00,976.4621770896797
2025-07-03 14:00:00+00:00,971.2904218910687
2025-07-03 15:00:00+00:00,965.3544877601761
2025-07-07 13:00:00+00:00,1017.0777819520824
2025-07-07 14:00:00+00:00,1008.2892987915164
2025-07-07 15:00:00+00:00,1016.292985308485
2025-07-07 16:00:00+00:00,986.4258253127696
2025-07-07 17:00:00+00:00,1007.3751400014944
2025-07-07 18:00:00+00:00,1022.9451768076176
2025-07-07 19:00:00+00:00,1055.3011917416832
2025-07-08 13:00:00+00:00,1114.8826635342346
2025-07-08 14:00:00+00:00,1086.5777379730584
2025-07-08 15:00:00+00:00,1057.6948969856094
2025-07-08 16:00:00+00:00,1060.949312063914
2025-07-08 17:00:00+00:00,1057.7618457729836
2025-07-08 18:00:00+00:00,1030.36464241518
2025-07-08 19:00:00+00:00,1076.667903737545
2025-07-09 13:00:00+00:00,1095.501026887237
2025-07-09 14:00:00+00:00,1129.7253601448215
2025-07-09 15:00:00+00:00,1145.8177379201693
2025-07-09 16:00:00+00:00,1132.4491887164072
2025-07-09 17:00:00+00:00,1125.207454438361
2025-07-09 18:00:00+00:00,1100.7253457525803
2025-07-09 19:00:00+00:00,1104.9483797405521
2025-07-10 13:00:00+00:00,1029.6413802499342
2025-07-10 14:00:00+00:00,1038.086608223149
2025-07-10 15:00:00+00:00,1061.0261564487225
2025-07-10 16:00:00+00:00,1068.9981315017153
2025-07-10 17:00:00+00:00,1048.9308651260253
2025-07-10 18:00:00+00:00,1057.0946485011361
2025-07-10 19:00:00+00:00,1084.1417853249445
2025-07-11 13:00:00+00:00,1124.2797860885457
2025-07-11 14:00:00+00:00,1154.3639304590174
2025-07-11 15:00:00+00:00,1150.507092742705
2025-07-11 16:00:00+00:00,1150.4722106497577
2025-07-11 17:00:00+00:00,1139.3605253721275
2025-07-11 18:00:00+00:00,1140.5040385426341
2025-07-11 19:00:00+00:00,1134.0436553656168
2025-07-14 13:00:00+00:00,1153.770983133074
2025-07-14 14:00:00+00:00,1131.3656347982126
2025-07-14 15:00:00+00:00,1132.5495477252057
2025-07-14 16:00:00+00:00,1120.1924992469455
2025-07-14 17:00:00+00:00,1104.4682384766725
2025-07-14 19:00:00+00:00,1068.4795559279542
2025-07-15 13:00:00+00:00,1137.5453986962768
2025-07-15 14:00:00+00:00,1138.1929544306977
2025-07-15 15:00:00+00:00,1146.7337386763056
2025-07-15 16:00:00+00:00,1146.0370507530763
2025-07-15 17:00:00+00:00,1169.1106309592494
2025-07-15 19:00:00+00:00,1181.0783604821856
2025-07-16 13:00:00+00:00,1150.6892612311829
2025-07-16 14:00:00+00:00,1170.8172017863196
2025-07-16 15:00:00+00:00,1163.4994423812898
2025-07-16 16:00:00+00:00,1138.5691792070038
2025-07-16 17:00:00+00:00,1127.1072732207936
2025-07-16 19:00:00+00:00,1112.82099562558
2025-07-17 13:00:00+00:00,1124.4568605186992
2025-07-17 15:00:00+00:00,1124.4328240201266
2025-07-17 16:00:00+00:00,1116.94995675697
2025-07-17 17:00:00+00:00,1100.1514485629712
2025-07-18 13:00:00+00:00,1198.306640924085
2025-07-18 17:00:00+00:00,1231.692560715541
2025-07-18 19:00:00+00:00,1200.6206219232356
2025-07-21 13:00:00+00:00,1173.4950326210178
2025-07-21 14:00:00+00:00,1194.6333080636591
2025-07-21 16:00:00+00:00,1175.8264546666433
2025-07-21 19:00:00+00:00,1204.5963358427323
2025-07-22 13:00:00+00:00,1292.3203633601017
2025-07-22 14:00:00+00:00,1317.2056886080943
2025-07-22 15:00:00+00:00,1335.617121119278
2025-07-22 18:00:00+00:00,1316.1471801790021
2025-07-22 19:00:00+00:00,1271.4792721571591
2025-07-23 13:00:00+00:00,1319.8364597727607
2025-07-23 14:00:00+00:00,1329.1506059646267
2025-07-23 15:00:00+00:00,1286.6050564392067
2025-07-23 16:00:00+00:00,1295.0703249628677
2025-07-23 17:00:00+00:00,1289.788337049305
2025-07-23 18:00:00+00:00,1275.5409374951632
2025-07-23 19:00:00+00:00,1263.7553129499747
2025-07-24 13:00:00+00:00,796.6806470884401
2025-07-24 14:00:00+00:00,819.2984798823118
2025-07-24 15:00:00+00:00,849.2192305387106
2025-07-24 16:00:00+00:00,833.8188042023953
2025-07-24 19:00:00+00:00,841.4697602199498
2025-07-25 13:00:00+00:00,801.1798229548104
2025-07-25 14:00:00+00:00,795.1947210769882
2025-07-25 15:00:00+00:00,754.3906244715819
2025-07-25 16:00:00+00:00,775.424437238164
2025-07-25 17:00:00+00:00,830.9239364531126
2025-07-25 18:00:00+00:00,819.6597089415327
2025-07-28 13:00:00+00:00,854.8961873544381
2025-07-28 14:00:00+00:00,912.9386491384099
2025-07-28 15:00:00+00:00,910.9128979221665
2025-07-28 16:00:00+00:00,968.714125131815
2025-07-28 17:00:00+00:00,966.0605418007448
2025-07-28 18:00:00+00:00,966.1360602641736
2025-07-28 19:00:00+00:00,976.1914747314319
2025-07-29 13:00:00+00:00,1030.2082896801442
2025-07-29 14:00:00+00:00,1032.542375691187
2025-07-29 15:00:00+00:00,1023.5909802739588
2025-07-29 16:00:00+00:00,1002.6778796608912
2025-07-29 17:00:00+00:00,1020.670942976714
2025-07-29 18:00:00+00:00,1024.0856057273352
2025-07-29 19:00:00+00:00,1033.0456894370782
2025-07-30 13:00:00+00:00,1272.0251201448632
2025-07-30 14:00:00+00:00,1339.1403038136714
2025-07-30 15:00:00+00:00,1333.7999039721453
2025-07-30 16:00:00+00:00,1252.975156272425
2025-07-30 17:00:00+00:00,1257.1346674679835
2025-07-30 18:00:00+00:00,1323.088325794811
2025-07-30 19:00:00+00:00,1307.8226278353611
2025-07-31 13:00:00+00:00,1221.4270721643652
2025-07-31 16:00:00+00:00,1290.4733810457979
2025-07-31 17:00:00+00:00,1271.5284450401634
2025-07-31 18:00:00+00:00,1298.4368575389828
2025-07-31 19:00:00+00:00,1296.2919158846394
2025-08-01 13:00:00+00:00,1327.1660007553799
2025-08-01 14:00:00+00:00,1304.9149146842703
2025-08-01 15:00:00+00:00,1273.0239710414708
2025-08-01 16:00:00+00:00,1281.0268322392847
2025-08-01 17:00:00+00:00,1259.075004623366
2025-08-04 13:00:00+00:00,1141.1349639425327
2025-08-04 14:00:00+00:00,1140.1308714932782
2025-08-04 15:00:00+00:00,1150.5100373361581
2025-08-04 17:00:00+00:00,1196.4040526300143
2025-08-04 18:00:00+00:00,1167.9720628085568
2025-08-04 19:00:00+00:00,1161.715057675781
2025-08-05 13:00:00+00:00,1167.8235356725368
2025-08-05 14:00:00+00:00,1155.82828036646
2025-08-05 16:00:00+00:00,1137.5265246817094
2025-08-05 17:00:00+00:00,1156.8135353250875
2025-08-05 19:00:00+00:00,1173.3931822440059
2025-08-06 13:00:00+00:00,1175.505377834913
2025-08-06 15:00:00+00:00,1120.7305050061932
2025-08-06 19:00:00+00:00,1082.0655154607382
2025-08-07 13:00:00+00:00,1023.3246953465049
2025-08-07 14:00:00+00:00,1068.277859267028
2025-08-07 15:00:00+00:00,1053.5825389778106
2025-08-07 16:00:00+00:00,1086.002858002718
2025-08-07 17:00:00+00:00,1072.2085418954607
2025-08-07 18:00:00+00:00,1086.828016103201
2025-08-07 19:00:00+00:00,1087.3336768836575
2025-08-08 13:00:00+00:00,1074.2496413177632
2025-08-08 14:00:00+00:00,1047.0101895082814
2025-08-08 16:00:00+00:00,1001.8684535278973
2025-08-08 17:00:00+00:00,982.7866318435374
2025-08-08 18:00:00+00:00,976.1424322406566
2025-08-08 19:00:00+00:00,996.7392061626729
2025-08-11 13:00:00+00:00,980.5164398658756
2025-08-11 14:00:00+00:00,939.5567845721317
2025-08-11 15:00:00+00:00,929.2647397314444
2025-08-11 18:00:00+00:00,979.6757793847519
2025-08-11 19:00:00+00:00,987.9896393427829
2025-08-12 13:00:00+00:00,918.4832897176775
2025-08-12 14:00:00+00:00,906.8585873497838
2025-08-12 15:00:00+00:00,913.4854103676354
2025-08-12 16:00:00+00:00,943.8782716942538
2025-08-12 17:00:00+00:00,901.5570655493301
2025-08-12 18:00:00+00:00,940.7076753247948
2025-08-13 13:00:00+00:00,888.1689021418192
2025-08-13 14:00:00+00:00,846.7823681675468
2025-08-13 15:00:00+00:00,867.2108991605814
2025-08-13 16:00:00+00:00,882.4812894644199
2025-08-13 18:00:00+00:00,821.2051270386413
2025-08-13 19:00:00+00:00,788.4770374509768
2025-08-14 13:00:00+00:00,895.7234765678287
2025-08-14 14:00:00+00:00,912.4749962080409
2025-08-14 15:00:00+00:00,933.2300283419356
2025-08-14 16:00:00+00:00,929.0619994367663
2025-08-14 18:00:00+00:00,893.8988005971405
2025-08-15 13:00:00+00:00,892.3226174403964
2025-08-15 14:00:00+00:00,924.8644163694842
2025-08-15 16:00:00+00:00,922.36756953488
2025-08-15 17:00:00+00:00,905.2792809392338
2025-08-15 18:00:00+00:00,895.6541359871512
2025-08-18 13:00:00+00:00,925.2245031787024
2025-08-18 14:00:00+00:00,937.3251224322348
2025-08-18 15:00:00+00:00,927.8527180284914
2025-08-18 16:00:00+00:00,929.6627785986293
2025-08-18 18:00:00+00:00,916.9313193575648
2025-08-18 19:00:00+00:00,929.7175470674384
2025-08-19 13:00:00+00:00,811.927912591046
2025-08-19 14:00:00+00:00,788.5708594077948
2025-08-19 15:00:00+00:00,822.939941317466
2025-08-19 17:00:00+00:00,834.899489211443
2025-08-19 18:00:00+00:00,833.5514834781796
2025-08-19 19:00:00+00:00,835.7051134250371
2025-08-20 13:00:00+00:00,945.7052785639439
2025-08-20 15:00:00+00:00,942.089714743275
2025-08-20 16:00:00+00:00,938.722554417704
2025-08-20 17:00:00+00:00,938.7265503658294
2025-08-21 13:00:00+00:00,927.847390097656
2025-08-21 14:00:00+00:00,935.499142471498
2025-08-21 18:00:00+00:00,930.8148258870649
2025-08-21 19:00:00+00:00,936.4608965579733
2025-08-22 13:00:00+00:00,846.4684648891412
2025-08-22 14:00:00+00:00,829.1976918503418
2025-08-22 15:00:00+00:00,849.266290208741
2025-08-22 16:00:00+00:00,865.2157579782673
2025-08-22 18:00:00+00:00,902.3940174654683
2025-08-22 19:00:00+00:00,896.5865179537072
2025-08-25 13:00:00+00:00,947.1207227208881
2025-08-25 14:00:00+00:00,961.5585986144387
2025-08-25 15:00:00+00:00,982.6328111375083
2025-08-25 17:00:00+00:00,989.1294083901796
2025-08-26 13:00:00+00:00,982.4618686849869
2025-08-26 14:00:00+00:00,960.8682017074591
2025-08-26 18:00:00+00:00,979.3153088141022
2025-08-26 19:00:00+00:00,971.0154650794196
2025-08-27 13:00:00+00:00,985.7962053717437
2025-08-27 14:00:00+00:00,962.9134539939508
2025-08-27 15:00:00+00:00,969.703458699101
2025-08-27 16:00:00+00:00,978.8293716532396
2025-08-27 17:00:00+00:00,995.6119894195028
2025-08-27 18:00:00+00:00,984.3058318543373
2025-08-27 19:00:00+00:00,999.1687532651113
2025-08-28 14:00:00+00:00,1038.133502446352
2025-08-28 18:00:00+00:00,1037.274794235629
2025-08-28 19:00:00+00:00,1045.0858471113258
2025-08-29 15:00:00+00:00,1052.5966473545207
2025-08-29 16:00:00+00:00,1043.757375264952
2025-08-29 19:00:00+00:00,1050.553808752615
2025-09-02 13:00:00+00:00,1158.1707785591252
2025-09-02 14:00:00+00:00,1151.170947877421
2025-09-02 15:00:00+00:00,1168.64911405839
2025-09-02 18:00:00+00:00,1138.7450435907588
2025-09-02 19:00:00+00:00,1136.2528891005406
2025-09-03 13:00:00+00:00,1145.1169518915915
2025-09-03 15:00:00+00:00,1134.4972089521198
2025-09-03 16:00:00+00:00,1138.2839682476197
2025-09-03 17:00:00+00:00,1133.6353301124227
2025-09-04 13:00:00+00:00,1065.8416832920193
2025-09-04 14:00:00+00:00,1057.674729287935
2025-09-04 18:00:00+00:00,1094.9848634538762
2025-09-05 13:00:00+00:00,1074.8380023497707
2025-09-05 14:00:00+00:00,1076.6959817424704
2025-09-05 15:00:00+00:00,1100.8113765221303
2025-09-05 16:00:00+00:00,1118.366778454849
2025-09-05 17:00:00+00:00,1151.8631359304486
2025-09-05 18:00:00+00:00,1126.6264121657493
2025-09-08 13:00:00+00:00,1055.5705043209318
2025-09-08 14:00:00+00:00,1036.4168900717068
2025-09-08 15:00:00+00:00,1038.9037166310889
2025-09-08 18:00:00+00:00,1003.8568892384408
2025-09-08 19:00:00+00:00,964.8111367468745
2025-09-09 13:00:00+00:00,1084.6970042940188
2025-09-09 14:00:00+00:00,1106.2716768648565
2025-09-09 15:00:00+00:00,1118.903135647422
2025-09-09 17:00:00+00:00,1110.575766129598
2025-09-09 18:00:00+00:00,1137.815063764497
2025-09-09 19:00:00+00:00,1124.171614001194
2025-09-10 13:00:00+00:00,1150.3850941647086
2025-09-10 14:00:00+00:00,1174.8011624406056
2025-09-10 15:00:00+00:00,1175.4595637694013
2025-09-10 17:00:00+00:00,1164.8504958414003
2025-09-11 13:00:00+00:00,1080.0553368422995
2025-09-11 14:00:00+00:00,1010.9140911873137
2025-09-11 18:00:00+00:00,1055.146698925265
2025-09-11 19:00:00+00:00,1050.0034353366934
2025-09-12 13:00:00+00:00,1125.3714030701537
2025-09-12 14:00:00+00:00,1133.0183631395798
2025-09-12 15:00:00+00:00,1128.0220055049517
2025-09-12 16:00:00+00:00,1100.9693510176041
2025-09-12 17:00:00+00:00,1099.3190348166386
2025-09-12 18:00:00+00:00,1108.7772332643274
2025-09-12 19:00:00+00:00,1125.3742567682748
2025-09-15 13:00:00+00:00,1106.0027343801996
2025-09-15 14:00:00+00:00,1175.2133394674488
2025-09-15 17:00:00+00:00,1084.3202372960336
2025-09-15 18:00:00+00:00,1098.935715555646
2025-09-15 19:00:00+00:00,1120.0172843885205
2025-09-16 13:00:00+00:00,1223.2099807126851
2025-09-16 18:00:00+00:00,1245.6367015807014
2025-09-17 13:00:00+00:00,1166.9063291556654
2025-09-17 16:00:00+00:00,1190.7968858333631
2025-09-17 17:00:00+00:00,1152.565445847909
2025-09-17 18:00:00+00:00,1255.6090593686563
2025-09-17 19:00:00+00:00,1247.6370843156617
2025-09-18 13:00:00+00:00,1161.6605553177576
2025-09-18 14:00:00+00:00,1192.5800704925766
2025-09-18 16:00:00+00:00,1144.777901534874
2025-09-18 18:00:00+00:00,1149.2402490114926
2025-09-19 13:00:00+00:00,1103.0040879096057
2025-09-19 15:00:00+00:00,1109.825700145844
2025-09-19 17:00:00+00:00,1089.5749968096986
2025-09-19 19:00:00+00:00,1054.8645366585463
2025-09-22 13:00:00+00:00,1067.050268304033
2025-09-22 14:00:00+00:00,1073.0046737697412
2025-09-22 15:00:00+00:00,1046.1089455115614
2025-09-22 18:00:00+00:00,1019.860772987802
2025-09-22 19:00:00+00:00,1020.3762643107788
2025-09-23 13:00:00+00:00,1146.1560970166981
2025-09-23 14:00:00+00:00,1150.655165232529
2025-09-23 15:00:00+00:00,1208.628666877406
2025-09-23 19:00:00+00:00,1206.0334954742987
2025-09-24 15:00:00+00:00,1273.5460146274486
2025-09-24 17:00:00+00:00,1293.4912368669163
2025-09-24 18:00:00+00:00,1268.679558619445
2025-09-24 19:00:00+00:00,1282.6985422457562
2025-09-25 13:00:00+00:00,1246.9145228426987
2025-09-25 15:00:00+00:00,1263.6751324893605
2025-09-25 17:00:00+00:00,1309.527149011106
2025-09-25 18:00:00+00:00,1288.1355964698726
2025-09-26 13:00:00+00:00,1368.5645690980753
2025-09-26 14:00:00+00:00,1383.0178287558049
2025-09-26 17:00:00+00:00,1351.0974851254743
2025-09-26 18:00:00+00:00,1365.3852844361024
2025-09-26 19:00:00+00:00,1388.446822089976
2025-09-29 13:00:00+00:00,1391.1520224106805
2025-09-29 14:00:00+00:00,1343.6455040071387
2025-09-29 16:00:00+00:00,1357.3164987033872
2025-09-29 17:00:00+00:00,1343.3178250581539
2025-09-29 18:00:00+00:00,1337.0350442472009
2025-09-29 19:00:00+00:00,1359.2672928276825
2025-09-30 13:00:00+00:00,1279.284047336557
2025-09-30 14:00:00+00:00,1295.9172849161616
2025-09-30 15:00:00+00:00,1274.3270744065624
2025-09-30 16:00:00+00:00,1284.297274892657
2025-09-30 18:00:00+00:00,1276.2777335060748
2025-09-30 19:00:00+00:00,1287.3754025603562
2025-10-01 13:00:00+00:00,1337.0241986528256
2025-10-01 14:00:00+00:00,1327.7042178665681
2025-10-01 16:00:00+00:00,1360.25470508817
2025-10-01 19:00:00+00:00,1366.3874093162015
2025-10-02 13:00:00+00:00,1372.4710254952333
2025-10-02 14:00:00+00:00,1374.4714082301937
2025-10-02 15:00:00+00:00,1376.113542802204
2025-10-02 16:00:00+00:00,1397.684219424916
2025-10-02 17:00:00+00:00,1397.684219424916
2025-10-02 18:00:00+00:00,1397.684219424916
2025-10-02 19:00:00+00:00,1397.684219424916
2025-10-03 13:00:00+00:00,1397.684219424916
2025-10-03 14:00:00+00:00,1397.684219424916
2025-10-03 15:00:00+00:00,1397.684219424916
2025-10-03 16:00:00+00:00,1397.684219424916
2025-10-03 17:00:00+00:00,1397.684219424916
2025-10-03 19:00:00+00:00,1397.684219424916
2025-10-06 13:00:00+00:00,1397.684219424916
2025-10-06 14:00:00+00:00,1397.684219424916
2025-10-06 15:00:00+00:00,1397.684219424916
2025-10-06 16:00:00+00:00,1397.684219424916
2025-10-06 17:00:00+00:00,1397.684219424916
2025-10-06 18:00:00+00:00,1397.684219424916
2025-10-06 19:00:00+00:00,1397.684219424916
2025-10-07 13:00:00+00:00,1397.684219424916
2025-10-07 14:00:00+00:00,1397.684219424916
2025-10-07 15:00:00+00:00,1397.684219424916
2025-10-07 16:00:00+00:00,1397.684219424916
2025-10-07 17:00:00+00:00,1397.684219424916
2025-10-07 18:00:00+00:00,1397.684219424916
2025-10-07 19:00:00+00:00,1397.684219424916
2025-10-08 13:00:00+00:00,1397.684219424916
2025-10-08 14:00:00+00:00,1397.684219424916
2025-10-08 15:00:00+00:00,1397.684219424916
2025-10-08 18:00:00+00:00,1397.684219424916
2025-10-08 19:00:00+00:00,1397.684219424916
2025-10-09 13:00:00+00:00,1397.684219424916
2025-10-09 14:00:00+00:00,1397.684219424916
2025-10-09 15:00:00+00:00,1397.684219424916
2025-10-09 18:00:00+00:00,1397.684219424916
2025-10-10 13:00:00+00:00,1397.684219424916
2025-10-10 14:00:00+00:00,1397.684219424916
2025-10-10 15:00:00+00:00,1397.684219424916
2025-10-10 16:00:00+00:00,1397.684219424916
2025-10-10 18:00:00+00:00,1397.684219424916
2025-10-13 13:00:00+00:00,1397.684219424916
2025-10-13 14:00:00+00:00,1397.684219424916
2025-10-13 15:00:00+00:00,1397.684219424916
2025-10-13 16:00:00+00:00,1397.684219424916
2025-10-13 18:00:00+00:00,1397.684219424916
2025-10-13 19:00:00+00:00,1397.684219424916
2025-10-14 13:00:00+00:00,1397.684219424916
2025-10-14 14:00:00+00:00,1397.684219424916
2025-10-14 16:00:00+00:00,1397.684219424916
2025-10-14 17:00:00+00:00,1397.684219424916
2025-10-14 18:00:00+00:00,1397.684219424916
2025-10-14 19:00:00+00:00,1397.684219424916
2025-10-15 13:00:00+00:00,1397.684219424916
2025-10-15 14:00:00+00:00,1397.684219424916
2025-10-15 15:00:00+00:00,1397.684219424916
2025-10-15 18:00:00+00:00,1397.684219424916
2025-10-15 19:00:00+00:00,1397.684219424916
2025-10-16 13:00:00+00:00,1397.684219424916
2025-10-16 14:00:00+00:00,1397.684219424916
2025-10-16 15:00:00+00:00,1397.684219424916
2025-10-16 16:00:00+00:00,1397.684219424916
2025-10-16 17:00:00+00:00,1397.684219424916
2025-10-16 18:00:00+00:00,1397.684219424916
2025-10-16 19:00:00+00:00,1397.684219424916
2025-10-17 13:00:00+00:00,1397.684219424916
2025-10-17 14:00:00+00:00,1397.684219424916
2025-10-17 15:00:00+00:00,1397.684219424916
2025-10-17 17:00:00+00:00,1397.684219424916
2025-10-17 18:00:00+00:00,1397.684219424916
2025-10-20 13:00:00+00:00,1397.684219424916
2025-10-20 14:00:00+00:00,1397.684219424916
2025-10-20 17:00:00+00:00,1397.684219424916
2025-10-20 18:00:00+00:00,1397.684219424916
2025-10-21 13:00:00+00:00,1397.684219424916
2025-10-21 14:00:00+00:00,1397.684219424916
2025-10-21 16:00:00+00:00,1397.684219424916
2025-10-21 17:00:00+00:00,1397.684219424916
2025-10-21 18:00:00+00:00,1397.684219424916
2025-10-21 19:00:00+00:00,1397.684219424916
2025-10-22 13:00:00+00:00,1397.684219424916
2025-10-22 14:00:00+00:00,1397.684219424916
2025-10-22 16:00:00+00:00,1397.684219424916
2025-10-22 17:00:00+00:00,1397.684219424916
2025-10-22 18:00:00+00:00,1397.684219424916
2025-10-22 19:00:00+00:00,1397.684219424916
