Date,0
2024-01-02 14:00:00+00:00,0.0
2024-01-02 15:00:00+00:00,0.0
2024-01-02 16:00:00+00:00,0.0
2024-01-02 17:00:00+00:00,0.0
2024-01-02 18:00:00+00:00,0.0
2024-01-02 19:00:00+00:00,0.0
2024-01-02 20:00:00+00:00,0.0
2024-01-03 14:00:00+00:00,0.0
2024-01-03 15:00:00+00:00,0.0
2024-01-03 16:00:00+00:00,0.0
2024-01-03 17:00:00+00:00,0.0
2024-01-03 18:00:00+00:00,0.0
2024-01-03 19:00:00+00:00,0.0
2024-01-03 20:00:00+00:00,0.0
2024-01-04 14:00:00+00:00,0.0
2024-01-04 15:00:00+00:00,0.0
2024-01-04 16:00:00+00:00,0.0
2024-01-04 17:00:00+00:00,0.0
2024-01-04 18:00:00+00:00,0.0
2024-01-04 19:00:00+00:00,0.0
2024-01-04 20:00:00+00:00,0.0
2024-01-05 14:00:00+00:00,0.0
2024-01-05 15:00:00+00:00,0.0
2024-01-05 16:00:00+00:00,0.0
2024-01-05 17:00:00+00:00,0.0
2024-01-05 18:00:00+00:00,0.0
2024-01-05 19:00:00+00:00,0.0
2024-01-05 20:00:00+00:00,0.0
2024-01-08 14:00:00+00:00,0.0
2024-01-08 15:00:00+00:00,0.0
2024-01-08 16:00:00+00:00,0.0
2024-01-08 17:00:00+00:00,0.0
2024-01-08 18:00:00+00:00,0.0
2024-01-08 19:00:00+00:00,0.0
2024-01-08 20:00:00+00:00,0.0
2024-01-09 14:00:00+00:00,0.0
2024-01-09 15:00:00+00:00,0.0
2024-01-09 16:00:00+00:00,0.0
2024-01-09 17:00:00+00:00,0.0
2024-01-09 18:00:00+00:00,0.0
2024-01-09 19:00:00+00:00,0.0
2024-01-09 20:00:00+00:00,0.0
2024-01-10 14:00:00+00:00,0.0
2024-01-10 15:00:00+00:00,0.0
2024-01-10 16:00:00+00:00,0.0
2024-01-10 17:00:00+00:00,0.0
2024-01-10 18:00:00+00:00,0.0
2024-01-10 19:00:00+00:00,0.0
2024-01-10 20:00:00+00:00,0.0
2024-01-11 14:00:00+00:00,0.0
2024-01-11 15:00:00+00:00,0.0
2024-01-11 16:00:00+00:00,0.0
2024-01-11 17:00:00+00:00,0.0
2024-01-11 18:00:00+00:00,0.0
2024-01-11 19:00:00+00:00,0.0
2024-01-11 20:00:00+00:00,0.0
2024-01-12 14:00:00+00:00,0.0
2024-01-12 15:00:00+00:00,0.0
2024-01-12 16:00:00+00:00,0.0
2024-01-12 17:00:00+00:00,0.0
2024-01-12 18:00:00+00:00,0.0
2024-01-12 19:00:00+00:00,0.0
2024-01-12 20:00:00+00:00,0.0
2024-01-16 14:00:00+00:00,0.0
2024-01-16 15:00:00+00:00,0.0
2024-01-16 16:00:00+00:00,0.0
2024-01-16 17:00:00+00:00,0.0
2024-01-16 18:00:00+00:00,0.0
2024-01-16 19:00:00+00:00,0.0
2024-01-16 20:00:00+00:00,0.0
2024-01-17 14:00:00+00:00,0.0
2024-01-17 15:00:00+00:00,0.0
2024-01-17 16:00:00+00:00,0.0
2024-01-17 17:00:00+00:00,0.0
2024-01-17 18:00:00+00:00,0.0
2024-01-17 19:00:00+00:00,0.0
2024-01-17 20:00:00+00:00,0.0
2024-01-18 14:00:00+00:00,0.0
2024-01-18 15:00:00+00:00,0.0
2024-01-18 16:00:00+00:00,0.0
2024-01-18 17:00:00+00:00,0.0
2024-01-18 18:00:00+00:00,0.0
2024-01-18 19:00:00+00:00,0.0
2024-01-18 20:00:00+00:00,0.0
2024-01-19 14:00:00+00:00,0.0
2024-01-19 15:00:00+00:00,0.0
2024-01-19 16:00:00+00:00,0.0
2024-01-19 17:00:00+00:00,0.0
2024-01-19 18:00:00+00:00,0.0
2024-01-19 19:00:00+00:00,0.0
2024-01-19 20:00:00+00:00,0.0
2024-01-22 14:00:00+00:00,0.0
2024-01-22 15:00:00+00:00,0.0
2024-01-22 16:00:00+00:00,0.0
2024-01-22 17:00:00+00:00,0.0
2024-01-22 18:00:00+00:00,0.0
2024-01-22 19:00:00+00:00,0.0
2024-01-22 20:00:00+00:00,0.0
2024-01-23 14:00:00+00:00,0.0
2024-01-23 15:00:00+00:00,0.0
2024-01-23 16:00:00+00:00,0.0
2024-01-23 17:00:00+00:00,0.0
2024-01-23 18:00:00+00:00,0.0
2024-01-23 19:00:00+00:00,0.0
2024-01-23 20:00:00+00:00,0.0
2024-01-24 14:00:00+00:00,0.0
2024-01-24 15:00:00+00:00,0.0
2024-01-24 16:00:00+00:00,0.0
2024-01-24 17:00:00+00:00,0.0
2024-01-24 18:00:00+00:00,0.0
2024-01-24 19:00:00+00:00,0.0
2024-01-24 20:00:00+00:00,0.0
2024-01-25 14:00:00+00:00,0.0
2024-01-25 15:00:00+00:00,0.0
2024-01-25 16:00:00+00:00,0.0
2024-01-25 17:00:00+00:00,0.0
2024-01-25 18:00:00+00:00,0.0
2024-01-25 19:00:00+00:00,0.0
2024-01-25 20:00:00+00:00,0.0
2024-01-26 14:00:00+00:00,0.0
2024-01-26 15:00:00+00:00,0.0
2024-01-26 16:00:00+00:00,0.0
2024-01-26 17:00:00+00:00,0.0
2024-01-26 18:00:00+00:00,0.0
2024-01-26 19:00:00+00:00,0.0
2024-01-26 20:00:00+00:00,0.0
2024-01-29 14:00:00+00:00,0.0
2024-01-29 15:00:00+00:00,0.0
2024-01-29 16:00:00+00:00,0.0
2024-01-29 17:00:00+00:00,0.0
2024-01-29 18:00:00+00:00,0.0
2024-01-29 19:00:00+00:00,0.0
2024-01-29 20:00:00+00:00,0.0
2024-01-30 14:00:00+00:00,0.0
2024-01-30 15:00:00+00:00,0.0
2024-01-30 16:00:00+00:00,0.0
2024-01-30 17:00:00+00:00,0.0
2024-01-30 18:00:00+00:00,0.0
2024-01-30 19:00:00+00:00,0.0
2024-01-30 20:00:00+00:00,0.0
2024-01-31 14:00:00+00:00,0.0
2024-01-31 15:00:00+00:00,0.0
2024-01-31 16:00:00+00:00,0.0
2024-01-31 17:00:00+00:00,0.0
2024-01-31 18:00:00+00:00,0.0
2024-01-31 19:00:00+00:00,0.0
2024-01-31 20:00:00+00:00,0.0
2024-02-01 14:00:00+00:00,0.0
2024-02-01 15:00:00+00:00,0.0
2024-02-01 16:00:00+00:00,0.0
2024-02-01 17:00:00+00:00,0.0
2024-02-01 18:00:00+00:00,0.0
2024-02-01 19:00:00+00:00,0.0
2024-02-01 20:00:00+00:00,0.0
2024-02-02 14:00:00+00:00,0.0
2024-02-02 15:00:00+00:00,0.0
2024-02-02 16:00:00+00:00,0.0
2024-02-02 17:00:00+00:00,0.0
2024-02-02 18:00:00+00:00,0.0
2024-02-02 19:00:00+00:00,0.0
2024-02-02 20:00:00+00:00,0.0
2024-02-05 14:00:00+00:00,0.0
2024-02-05 15:00:00+00:00,0.0
2024-02-05 16:00:00+00:00,0.0
2024-02-05 17:00:00+00:00,0.0
2024-02-05 18:00:00+00:00,0.0
2024-02-05 19:00:00+00:00,0.0
2024-02-05 20:00:00+00:00,0.0
2024-02-06 14:00:00+00:00,0.0
2024-02-06 15:00:00+00:00,0.0
2024-02-06 16:00:00+00:00,0.0
2024-02-06 17:00:00+00:00,0.0
2024-02-06 18:00:00+00:00,0.0
2024-02-06 19:00:00+00:00,0.0
2024-02-06 20:00:00+00:00,0.0
2024-02-07 14:00:00+00:00,0.0
2024-02-07 15:00:00+00:00,0.0
2024-02-07 16:00:00+00:00,0.0
2024-02-07 17:00:00+00:00,0.0
2024-02-07 18:00:00+00:00,0.0
2024-02-07 19:00:00+00:00,0.0
2024-02-07 20:00:00+00:00,0.0
2024-02-08 14:00:00+00:00,0.0
2024-02-08 15:00:00+00:00,0.0
2024-02-08 16:00:00+00:00,0.0
2024-02-08 17:00:00+00:00,0.0
2024-02-08 18:00:00+00:00,0.0
2024-02-08 19:00:00+00:00,0.0
2024-02-08 20:00:00+00:00,0.0
2024-02-09 14:00:00+00:00,0.0
2024-02-09 15:00:00+00:00,0.0
2024-02-09 16:00:00+00:00,0.0
2024-02-09 17:00:00+00:00,0.0
2024-02-09 18:00:00+00:00,0.0
2024-02-09 19:00:00+00:00,0.0
2024-02-09 20:00:00+00:00,0.0
2024-02-12 14:00:00+00:00,0.0
2024-02-12 15:00:00+00:00,0.0
2024-02-12 16:00:00+00:00,0.0
2024-02-12 17:00:00+00:00,0.0
2024-02-12 18:00:00+00:00,0.0
2024-02-12 19:00:00+00:00,0.0
2024-02-12 20:00:00+00:00,0.0
2024-02-13 14:00:00+00:00,0.0
2024-02-13 15:00:00+00:00,0.0
2024-02-13 16:00:00+00:00,0.0
2024-02-13 17:00:00+00:00,0.0
2024-02-13 18:00:00+00:00,0.0
2024-02-13 19:00:00+00:00,0.0
2024-02-13 20:00:00+00:00,0.0
2024-02-14 14:00:00+00:00,0.0
2024-02-14 15:00:00+00:00,0.0
2024-02-14 16:00:00+00:00,0.0
2024-02-14 17:00:00+00:00,0.0
2024-02-14 18:00:00+00:00,0.0
2024-02-14 19:00:00+00:00,0.0
2024-02-14 20:00:00+00:00,0.0
2024-02-15 14:00:00+00:00,0.0
2024-02-15 15:00:00+00:00,0.0
2024-02-15 16:00:00+00:00,0.0
2024-02-15 17:00:00+00:00,0.0
2024-02-15 18:00:00+00:00,0.0
2024-02-15 19:00:00+00:00,0.0
2024-02-15 20:00:00+00:00,0.0
2024-02-16 14:00:00+00:00,0.0
2024-02-16 15:00:00+00:00,0.0
2024-02-16 16:00:00+00:00,0.0
2024-02-16 17:00:00+00:00,0.0
2024-02-16 18:00:00+00:00,0.0
2024-02-16 19:00:00+00:00,0.0
2024-02-16 20:00:00+00:00,0.0
2024-02-20 14:00:00+00:00,0.0
2024-02-20 15:00:00+00:00,0.0
2024-02-20 16:00:00+00:00,0.0
2024-02-20 17:00:00+00:00,0.0
2024-02-20 18:00:00+00:00,0.0
2024-02-20 19:00:00+00:00,0.0
2024-02-20 20:00:00+00:00,0.0
2024-02-21 14:00:00+00:00,0.0
2024-02-21 15:00:00+00:00,0.0
2024-02-21 16:00:00+00:00,0.0
2024-02-21 17:00:00+00:00,0.0
2024-02-21 18:00:00+00:00,0.0
2024-02-21 19:00:00+00:00,0.0
2024-02-21 20:00:00+00:00,0.0
2024-02-22 14:00:00+00:00,0.0
2024-02-22 15:00:00+00:00,0.0
2024-02-22 16:00:00+00:00,0.0
2024-02-22 17:00:00+00:00,0.0
2024-02-22 18:00:00+00:00,0.0
2024-02-22 19:00:00+00:00,0.0
2024-02-22 20:00:00+00:00,0.0
2024-02-23 14:00:00+00:00,0.0
2024-02-23 15:00:00+00:00,0.0
2024-02-23 16:00:00+00:00,0.0
2024-02-23 17:00:00+00:00,0.0
2024-02-23 18:00:00+00:00,0.0
2024-02-23 19:00:00+00:00,0.0
2024-02-23 20:00:00+00:00,0.0
2024-02-26 14:00:00+00:00,0.0
2024-02-26 15:00:00+00:00,0.0
2024-02-26 16:00:00+00:00,0.0
2024-02-26 17:00:00+00:00,0.0
2024-02-26 18:00:00+00:00,0.0
2024-02-26 19:00:00+00:00,0.0
2024-02-26 20:00:00+00:00,0.0
2024-02-27 14:00:00+00:00,0.0
2024-02-27 15:00:00+00:00,0.0
2024-02-27 16:00:00+00:00,0.0
2024-02-27 17:00:00+00:00,0.0
2024-02-27 18:00:00+00:00,0.0
2024-02-27 19:00:00+00:00,0.0
2024-02-27 20:00:00+00:00,0.0
2024-02-28 14:00:00+00:00,0.0
2024-02-28 15:00:00+00:00,0.0
2024-02-28 16:00:00+00:00,0.0
2024-02-28 17:00:00+00:00,0.0
2024-02-28 18:00:00+00:00,0.0
2024-02-28 19:00:00+00:00,0.0
2024-02-28 20:00:00+00:00,0.0
2024-02-29 14:00:00+00:00,0.0
2024-02-29 15:00:00+00:00,0.0
2024-02-29 16:00:00+00:00,0.0
2024-02-29 17:00:00+00:00,0.0
2024-02-29 18:00:00+00:00,0.0
2024-02-29 19:00:00+00:00,0.0
2024-02-29 20:00:00+00:00,0.0
2024-03-01 14:00:00+00:00,0.0
2024-03-01 15:00:00+00:00,0.0
2024-03-01 16:00:00+00:00,0.0
2024-03-01 17:00:00+00:00,0.0
2024-03-01 18:00:00+00:00,0.0
2024-03-01 19:00:00+00:00,0.0
2024-03-01 20:00:00+00:00,0.0
2024-03-04 14:00:00+00:00,0.0
2024-03-04 15:00:00+00:00,0.0
2024-03-04 16:00:00+00:00,0.0
2024-03-04 17:00:00+00:00,0.0
2024-03-04 18:00:00+00:00,0.0
2024-03-04 19:00:00+00:00,0.0
2024-03-04 20:00:00+00:00,0.0
2024-03-05 14:00:00+00:00,0.0
2024-03-05 15:00:00+00:00,0.0
2024-03-05 16:00:00+00:00,0.0
2024-03-05 17:00:00+00:00,0.0
2024-03-05 18:00:00+00:00,0.0
2024-03-05 19:00:00+00:00,0.0
2024-03-05 20:00:00+00:00,0.0
2024-03-06 14:00:00+00:00,0.0
2024-03-06 15:00:00+00:00,0.0
2024-03-06 16:00:00+00:00,0.0
2024-03-06 17:00:00+00:00,0.0
2024-03-06 18:00:00+00:00,0.0
2024-03-06 19:00:00+00:00,0.0
2024-03-06 20:00:00+00:00,0.0
2024-03-07 14:00:00+00:00,0.0
2024-03-07 15:00:00+00:00,0.0
2024-03-07 16:00:00+00:00,0.0
2024-03-07 17:00:00+00:00,0.0
2024-03-07 18:00:00+00:00,0.0
2024-03-07 19:00:00+00:00,0.0
2024-03-07 20:00:00+00:00,0.0
2024-03-08 14:00:00+00:00,0.0
2024-03-08 15:00:00+00:00,0.0
2024-03-08 16:00:00+00:00,0.0
2024-03-08 17:00:00+00:00,0.0
2024-03-08 18:00:00+00:00,0.0
2024-03-08 19:00:00+00:00,0.0
2024-03-08 20:00:00+00:00,0.0
2024-03-11 13:00:00+00:00,0.0
2024-03-11 14:00:00+00:00,0.0
2024-03-11 15:00:00+00:00,0.0
2024-03-11 16:00:00+00:00,0.0
2024-03-11 17:00:00+00:00,0.0
2024-03-11 18:00:00+00:00,0.0
2024-03-11 19:00:00+00:00,0.0
2024-03-12 13:00:00+00:00,0.0
2024-03-12 14:00:00+00:00,0.0
2024-03-12 15:00:00+00:00,0.0
2024-03-12 16:00:00+00:00,0.0
2024-03-12 17:00:00+00:00,0.0
2024-03-12 18:00:00+00:00,0.0
2024-03-12 19:00:00+00:00,0.0
2024-03-13 13:00:00+00:00,0.0
2024-03-13 14:00:00+00:00,0.0
2024-03-13 15:00:00+00:00,0.0
2024-03-13 16:00:00+00:00,0.0
2024-03-13 17:00:00+00:00,0.0
2024-03-13 18:00:00+00:00,0.0
2024-03-13 19:00:00+00:00,0.0
2024-03-14 13:00:00+00:00,0.0
2024-03-14 14:00:00+00:00,0.0
2024-03-14 15:00:00+00:00,0.0
2024-03-14 16:00:00+00:00,0.0
2024-03-14 17:00:00+00:00,0.0
2024-03-14 18:00:00+00:00,0.0
2024-03-14 19:00:00+00:00,0.0
2024-03-15 13:00:00+00:00,0.0
2024-03-15 14:00:00+00:00,0.0
2024-03-15 15:00:00+00:00,0.0
2024-03-15 16:00:00+00:00,0.0
2024-03-15 17:00:00+00:00,0.0
2024-03-15 18:00:00+00:00,0.0
2024-03-15 19:00:00+00:00,0.0
2024-03-18 13:00:00+00:00,0.0
2024-03-18 14:00:00+00:00,0.0
2024-03-18 15:00:00+00:00,0.0
2024-03-18 16:00:00+00:00,0.0
2024-03-18 17:00:00+00:00,0.0
2024-03-18 18:00:00+00:00,0.0
2024-03-18 19:00:00+00:00,0.0
2024-03-19 13:00:00+00:00,0.0
2024-03-19 14:00:00+00:00,0.0
2024-03-19 15:00:00+00:00,0.0
2024-03-19 16:00:00+00:00,0.0
2024-03-19 17:00:00+00:00,0.0
2024-03-19 18:00:00+00:00,0.0
2024-03-19 19:00:00+00:00,0.0
2024-03-20 13:00:00+00:00,0.0
2024-03-20 14:00:00+00:00,0.0
2024-03-20 15:00:00+00:00,0.0
2024-03-20 16:00:00+00:00,0.0
2024-03-20 17:00:00+00:00,0.0
2024-03-20 18:00:00+00:00,0.0
2024-03-20 19:00:00+00:00,0.0
2024-03-21 13:00:00+00:00,0.0
2024-03-21 14:00:00+00:00,0.0
2024-03-21 15:00:00+00:00,0.0
2024-03-21 16:00:00+00:00,0.0
2024-03-21 17:00:00+00:00,0.0
2024-03-21 18:00:00+00:00,0.0
2024-03-21 19:00:00+00:00,0.0
2024-03-22 13:00:00+00:00,0.0
2024-03-22 14:00:00+00:00,0.0
2024-03-22 15:00:00+00:00,0.0
2024-03-22 16:00:00+00:00,0.0
2024-03-22 17:00:00+00:00,0.0
2024-03-22 18:00:00+00:00,0.0
2024-03-22 19:00:00+00:00,0.0
2024-03-25 13:00:00+00:00,0.0
2024-03-25 14:00:00+00:00,0.0
2024-03-25 15:00:00+00:00,0.0
2024-03-25 16:00:00+00:00,0.0
2024-03-25 17:00:00+00:00,0.0
2024-03-25 18:00:00+00:00,0.0
2024-03-25 19:00:00+00:00,0.0
2024-03-26 13:00:00+00:00,0.0
2024-03-26 14:00:00+00:00,0.0
2024-03-26 15:00:00+00:00,0.0
2024-03-26 16:00:00+00:00,0.0
2024-03-26 17:00:00+00:00,0.0
2024-03-26 18:00:00+00:00,0.0
2024-03-26 19:00:00+00:00,0.0
2024-03-27 13:00:00+00:00,0.0
2024-03-27 14:00:00+00:00,0.0
2024-03-27 15:00:00+00:00,0.0
2024-03-27 16:00:00+00:00,0.0
2024-03-27 17:00:00+00:00,0.0
2024-03-27 18:00:00+00:00,0.0
2024-03-27 19:00:00+00:00,0.0
2024-03-28 13:00:00+00:00,0.0
2024-03-28 14:00:00+00:00,0.0
2024-03-28 15:00:00+00:00,0.0
2024-03-28 16:00:00+00:00,0.0
2024-03-28 17:00:00+00:00,0.0
2024-03-28 18:00:00+00:00,0.0
2024-03-28 19:00:00+00:00,0.0
2024-04-01 13:00:00+00:00,0.0
2024-04-01 14:00:00+00:00,0.0
2024-04-01 15:00:00+00:00,0.0
2024-04-01 16:00:00+00:00,0.0
2024-04-01 17:00:00+00:00,0.0
2024-04-01 18:00:00+00:00,0.0
2024-04-01 19:00:00+00:00,0.0
2024-04-02 13:00:00+00:00,0.0
2024-04-02 14:00:00+00:00,0.0
2024-04-02 15:00:00+00:00,0.0
2024-04-02 16:00:00+00:00,0.0
2024-04-02 17:00:00+00:00,0.0
2024-04-02 18:00:00+00:00,0.0
2024-04-02 19:00:00+00:00,0.0
2024-04-03 13:00:00+00:00,0.0
2024-04-03 14:00:00+00:00,0.0
2024-04-03 15:00:00+00:00,0.0
2024-04-03 16:00:00+00:00,0.0
2024-04-03 17:00:00+00:00,0.0
2024-04-03 18:00:00+00:00,0.0
2024-04-03 19:00:00+00:00,0.0
2024-04-04 13:00:00+00:00,0.0
2024-04-04 14:00:00+00:00,0.0
2024-04-04 15:00:00+00:00,0.0
2024-04-04 16:00:00+00:00,0.0
2024-04-04 17:00:00+00:00,0.0
2024-04-04 18:00:00+00:00,0.0
2024-04-04 19:00:00+00:00,0.0
2024-04-05 13:00:00+00:00,0.0
2024-04-05 14:00:00+00:00,0.0
2024-04-05 15:00:00+00:00,0.0
2024-04-05 16:00:00+00:00,0.0
2024-04-05 17:00:00+00:00,0.0
2024-04-05 18:00:00+00:00,0.0
2024-04-05 19:00:00+00:00,0.0
2024-04-08 13:00:00+00:00,0.0
2024-04-08 14:00:00+00:00,0.0
2024-04-08 15:00:00+00:00,0.0
2024-04-08 16:00:00+00:00,0.0
2024-04-08 17:00:00+00:00,0.0
2024-04-08 18:00:00+00:00,0.0
2024-04-08 19:00:00+00:00,0.0
2024-04-09 13:00:00+00:00,0.0
2024-04-09 14:00:00+00:00,0.0
2024-04-09 15:00:00+00:00,0.0
2024-04-09 16:00:00+00:00,0.0
2024-04-09 17:00:00+00:00,0.0
2024-04-09 18:00:00+00:00,0.0
2024-04-09 19:00:00+00:00,0.0
2024-04-10 13:00:00+00:00,0.0
2024-04-10 14:00:00+00:00,0.0
2024-04-10 15:00:00+00:00,0.0
2024-04-10 16:00:00+00:00,0.0
2024-04-10 17:00:00+00:00,0.0
2024-04-10 18:00:00+00:00,0.0
2024-04-10 19:00:00+00:00,0.0
2024-04-11 13:00:00+00:00,0.0
2024-04-11 14:00:00+00:00,0.0
2024-04-11 15:00:00+00:00,0.0
2024-04-11 16:00:00+00:00,0.0
2024-04-11 17:00:00+00:00,0.0
2024-04-11 18:00:00+00:00,0.0
2024-04-11 19:00:00+00:00,0.0
2024-04-12 13:00:00+00:00,0.0
2024-04-12 14:00:00+00:00,0.0
2024-04-12 15:00:00+00:00,0.0
2024-04-12 16:00:00+00:00,0.0
2024-04-12 17:00:00+00:00,0.0
2024-04-12 18:00:00+00:00,0.0
2024-04-12 19:00:00+00:00,0.0
2024-04-15 13:00:00+00:00,0.0
2024-04-15 14:00:00+00:00,0.0
2024-04-15 15:00:00+00:00,0.0
2024-04-15 16:00:00+00:00,0.0
2024-04-15 17:00:00+00:00,0.0
2024-04-15 18:00:00+00:00,0.0
2024-04-15 19:00:00+00:00,0.0
2024-04-16 13:00:00+00:00,0.0
2024-04-16 14:00:00+00:00,0.0
2024-04-16 15:00:00+00:00,0.0
2024-04-16 16:00:00+00:00,0.0
2024-04-16 17:00:00+00:00,0.0
2024-04-16 18:00:00+00:00,0.0
2024-04-16 19:00:00+00:00,0.0
2024-04-17 13:00:00+00:00,0.0
2024-04-17 14:00:00+00:00,0.0
2024-04-17 15:00:00+00:00,0.0
2024-04-17 16:00:00+00:00,0.0
2024-04-17 17:00:00+00:00,0.0
2024-04-17 18:00:00+00:00,0.0
2024-04-17 19:00:00+00:00,0.0
2024-04-18 13:00:00+00:00,0.0
2024-04-18 14:00:00+00:00,0.0
2024-04-18 15:00:00+00:00,0.0
2024-04-18 16:00:00+00:00,0.0
2024-04-18 17:00:00+00:00,0.0
2024-04-18 18:00:00+00:00,0.0
2024-04-18 19:00:00+00:00,0.0
2024-04-19 13:00:00+00:00,0.0
2024-04-19 14:00:00+00:00,0.0
2024-04-19 15:00:00+00:00,0.0
2024-04-19 16:00:00+00:00,0.0
2024-04-19 17:00:00+00:00,0.0
2024-04-19 18:00:00+00:00,0.0
2024-04-19 19:00:00+00:00,0.0
2024-04-22 13:00:00+00:00,0.0
2024-04-22 14:00:00+00:00,0.0
2024-04-22 15:00:00+00:00,0.0
2024-04-22 16:00:00+00:00,0.0
2024-04-22 17:00:00+00:00,0.0
2024-04-22 18:00:00+00:00,0.0
2024-04-22 19:00:00+00:00,0.0
2024-04-23 13:00:00+00:00,0.0
2024-04-23 14:00:00+00:00,0.0
2024-04-23 15:00:00+00:00,0.0
2024-04-23 16:00:00+00:00,0.0
2024-04-23 17:00:00+00:00,0.0
2024-04-23 18:00:00+00:00,0.0
2024-04-23 19:00:00+00:00,0.0
2024-04-24 13:00:00+00:00,0.0
2024-04-24 14:00:00+00:00,0.0
2024-04-24 15:00:00+00:00,0.0
2024-04-24 16:00:00+00:00,0.0
2024-04-24 17:00:00+00:00,0.0
2024-04-24 18:00:00+00:00,0.0
2024-04-24 19:00:00+00:00,0.0
2024-04-25 13:00:00+00:00,0.0
2024-04-25 14:00:00+00:00,0.0
2024-04-25 15:00:00+00:00,0.0
2024-04-25 16:00:00+00:00,0.0
2024-04-25 17:00:00+00:00,0.0
2024-04-25 18:00:00+00:00,0.0
2024-04-25 19:00:00+00:00,0.0
2024-04-26 13:00:00+00:00,0.0
2024-04-26 14:00:00+00:00,0.0
2024-04-26 15:00:00+00:00,0.0
2024-04-26 16:00:00+00:00,0.0
2024-04-26 17:00:00+00:00,0.0
2024-04-26 18:00:00+00:00,0.0
2024-04-26 19:00:00+00:00,0.0
2024-04-29 13:00:00+00:00,0.0
2024-04-29 14:00:00+00:00,0.0
2024-04-29 15:00:00+00:00,0.0
2024-04-29 16:00:00+00:00,0.0
2024-04-29 17:00:00+00:00,0.0
2024-04-29 18:00:00+00:00,0.0
2024-04-29 19:00:00+00:00,0.0
2024-04-30 13:00:00+00:00,0.0
2024-04-30 14:00:00+00:00,0.0
2024-04-30 15:00:00+00:00,0.0
2024-04-30 16:00:00+00:00,0.0
2024-04-30 17:00:00+00:00,0.0
2024-04-30 18:00:00+00:00,0.0
2024-04-30 19:00:00+00:00,0.0
2024-05-01 13:00:00+00:00,0.0
2024-05-01 14:00:00+00:00,0.0
2024-05-01 15:00:00+00:00,0.0
2024-05-01 16:00:00+00:00,0.0
2024-05-01 17:00:00+00:00,0.0
2024-05-01 18:00:00+00:00,0.0
2024-05-01 19:00:00+00:00,0.0
2024-05-02 13:00:00+00:00,0.0
2024-05-02 14:00:00+00:00,0.0
2024-05-02 15:00:00+00:00,0.0
2024-05-02 16:00:00+00:00,0.0
2024-05-02 17:00:00+00:00,0.0
2024-05-02 18:00:00+00:00,0.0
2024-05-02 19:00:00+00:00,0.0
2024-05-03 13:00:00+00:00,0.0
2024-05-03 14:00:00+00:00,0.0
2024-05-03 15:00:00+00:00,0.0
2024-05-03 16:00:00+00:00,0.0
2024-05-03 17:00:00+00:00,0.0
2024-05-03 18:00:00+00:00,0.0
2024-05-03 19:00:00+00:00,0.0
2024-05-06 13:00:00+00:00,0.0
2024-05-06 14:00:00+00:00,0.0
2024-05-06 15:00:00+00:00,0.0
2024-05-06 16:00:00+00:00,0.0
2024-05-06 17:00:00+00:00,0.0
2024-05-06 18:00:00+00:00,0.0
2024-05-06 19:00:00+00:00,0.0
2024-05-07 13:00:00+00:00,0.0
2024-05-07 14:00:00+00:00,0.0
2024-05-07 15:00:00+00:00,0.0
2024-05-07 16:00:00+00:00,0.0
2024-05-07 17:00:00+00:00,0.0
2024-05-07 18:00:00+00:00,0.0
2024-05-07 19:00:00+00:00,0.0
2024-05-08 13:00:00+00:00,0.0
2024-05-08 14:00:00+00:00,0.0
2024-05-08 15:00:00+00:00,0.0
2024-05-08 16:00:00+00:00,0.0
2024-05-08 17:00:00+00:00,0.0
2024-05-08 18:00:00+00:00,0.0
2024-05-08 19:00:00+00:00,0.0
2024-05-09 13:00:00+00:00,0.0
2024-05-09 14:00:00+00:00,0.0
2024-05-09 15:00:00+00:00,0.0
2024-05-09 16:00:00+00:00,0.0
2024-05-09 17:00:00+00:00,0.0
2024-05-09 18:00:00+00:00,0.0
2024-05-09 19:00:00+00:00,0.0
2024-05-10 13:00:00+00:00,0.0
2024-05-10 14:00:00+00:00,0.0
2024-05-10 15:00:00+00:00,0.0
2024-05-10 16:00:00+00:00,0.0
2024-05-10 17:00:00+00:00,0.0
2024-05-10 18:00:00+00:00,0.0
2024-05-10 19:00:00+00:00,0.0
2024-05-13 13:00:00+00:00,0.0
2024-05-13 14:00:00+00:00,0.0
2024-05-13 15:00:00+00:00,0.0
2024-05-13 16:00:00+00:00,0.0
2024-05-13 17:00:00+00:00,0.0
2024-05-13 18:00:00+00:00,0.0
2024-05-13 19:00:00+00:00,0.0
2024-05-14 13:00:00+00:00,0.0
2024-05-14 14:00:00+00:00,0.0
2024-05-14 15:00:00+00:00,0.0
2024-05-14 16:00:00+00:00,0.0
2024-05-14 17:00:00+00:00,0.0
2024-05-14 18:00:00+00:00,0.0
2024-05-14 19:00:00+00:00,0.0
2024-05-15 13:00:00+00:00,0.0
2024-05-15 14:00:00+00:00,0.0
2024-05-15 15:00:00+00:00,0.0
2024-05-15 16:00:00+00:00,0.0
2024-05-15 17:00:00+00:00,0.0
2024-05-15 18:00:00+00:00,0.0
2024-05-15 19:00:00+00:00,0.0
2024-05-16 13:00:00+00:00,0.0
2024-05-16 14:00:00+00:00,0.0
2024-05-16 15:00:00+00:00,0.0
2024-05-16 16:00:00+00:00,0.0
2024-05-16 17:00:00+00:00,0.0
2024-05-16 18:00:00+00:00,0.0
2024-05-16 19:00:00+00:00,0.0
2024-05-17 13:00:00+00:00,0.0
2024-05-17 14:00:00+00:00,0.0
2024-05-17 15:00:00+00:00,0.0
2024-05-17 16:00:00+00:00,0.0
2024-05-17 17:00:00+00:00,0.0
2024-05-17 18:00:00+00:00,0.0
2024-05-17 19:00:00+00:00,0.0
2024-05-20 13:00:00+00:00,0.0
2024-05-20 14:00:00+00:00,0.0
2024-05-20 15:00:00+00:00,0.0
2024-05-20 16:00:00+00:00,0.0
2024-05-20 17:00:00+00:00,0.0
2024-05-20 18:00:00+00:00,0.0
2024-05-20 19:00:00+00:00,0.0
2024-05-21 13:00:00+00:00,0.0
2024-05-21 14:00:00+00:00,0.0
2024-05-21 15:00:00+00:00,0.0
2024-05-21 16:00:00+00:00,0.0
2024-05-21 17:00:00+00:00,0.0
2024-05-21 18:00:00+00:00,0.0
2024-05-21 19:00:00+00:00,0.0
2024-05-22 13:00:00+00:00,0.0
2024-05-22 14:00:00+00:00,0.0
2024-05-22 15:00:00+00:00,0.0
2024-05-22 16:00:00+00:00,0.0
2024-05-22 17:00:00+00:00,0.0
2024-05-22 18:00:00+00:00,0.0
2024-05-22 19:00:00+00:00,0.0
2024-05-23 13:00:00+00:00,0.0
2024-05-23 14:00:00+00:00,0.0
2024-05-23 15:00:00+00:00,0.0
2024-05-23 16:00:00+00:00,0.0
2024-05-23 17:00:00+00:00,0.0
2024-05-23 18:00:00+00:00,0.0
2024-05-23 19:00:00+00:00,0.0
2024-05-24 13:00:00+00:00,0.0
2024-05-24 14:00:00+00:00,0.0
2024-05-24 15:00:00+00:00,0.0
2024-05-24 16:00:00+00:00,0.0
2024-05-24 17:00:00+00:00,0.0
2024-05-24 18:00:00+00:00,0.0
2024-05-24 19:00:00+00:00,0.0
2024-05-28 13:00:00+00:00,0.0
2024-05-28 14:00:00+00:00,0.0
2024-05-28 15:00:00+00:00,0.0
2024-05-28 16:00:00+00:00,0.0
2024-05-28 17:00:00+00:00,0.0
2024-05-28 18:00:00+00:00,0.0
2024-05-28 19:00:00+00:00,0.0
2024-05-29 13:00:00+00:00,0.0
2024-05-29 14:00:00+00:00,0.0
2024-05-29 15:00:00+00:00,0.0
2024-05-29 16:00:00+00:00,0.0
2024-05-29 17:00:00+00:00,0.0
2024-05-29 18:00:00+00:00,0.0
2024-05-29 19:00:00+00:00,0.0
2024-05-30 13:00:00+00:00,0.0
2024-05-30 14:00:00+00:00,0.0
2024-05-30 15:00:00+00:00,0.0
2024-05-30 16:00:00+00:00,0.0
2024-05-30 17:00:00+00:00,0.0
2024-05-30 18:00:00+00:00,0.0
2024-05-30 19:00:00+00:00,0.0
2024-05-31 13:00:00+00:00,0.0
2024-05-31 14:00:00+00:00,0.0
2024-05-31 15:00:00+00:00,0.0
2024-05-31 16:00:00+00:00,0.0
2024-05-31 17:00:00+00:00,0.0
2024-05-31 18:00:00+00:00,0.0
2024-05-31 19:00:00+00:00,0.0
2024-06-03 13:00:00+00:00,0.0
2024-06-03 14:00:00+00:00,0.0
2024-06-03 15:00:00+00:00,0.0
2024-06-03 16:00:00+00:00,0.0
2024-06-03 17:00:00+00:00,0.0
2024-06-03 18:00:00+00:00,0.0
2024-06-03 19:00:00+00:00,0.0
2024-06-04 13:00:00+00:00,0.0
2024-06-04 14:00:00+00:00,0.0
2024-06-04 15:00:00+00:00,0.0
2024-06-04 16:00:00+00:00,0.0
2024-06-04 17:00:00+00:00,0.0
2024-06-04 18:00:00+00:00,0.0
2024-06-04 19:00:00+00:00,0.0
2024-06-05 13:00:00+00:00,0.0
2024-06-05 14:00:00+00:00,0.0
2024-06-05 17:00:00+00:00,0.0
2024-06-05 19:00:00+00:00,0.0
2024-06-06 13:00:00+00:00,0.0
2024-06-06 14:00:00+00:00,0.0
2024-06-07 13:00:00+00:00,0.0
2024-06-07 14:00:00+00:00,0.0
2024-06-07 15:00:00+00:00,0.0
2024-06-07 16:00:00+00:00,0.0
2024-06-07 17:00:00+00:00,0.0
2024-06-07 18:00:00+00:00,0.0
2024-06-07 19:00:00+00:00,0.0
2024-06-10 13:00:00+00:00,0.0
2024-06-10 14:00:00+00:00,0.0
2024-06-10 16:00:00+00:00,0.0
2024-06-10 17:00:00+00:00,0.0
2024-06-10 18:00:00+00:00,0.0
2024-06-10 19:00:00+00:00,0.0
2024-06-11 13:00:00+00:00,0.0
2024-06-11 14:00:00+00:00,0.0
2024-06-11 15:00:00+00:00,0.0
2024-06-11 17:00:00+00:00,0.0
2024-06-11 18:00:00+00:00,0.0
2024-06-11 19:00:00+00:00,0.0
2024-06-12 13:00:00+00:00,0.0
2024-06-12 15:00:00+00:00,0.0
2024-06-12 18:00:00+00:00,0.0
2024-06-12 19:00:00+00:00,0.0
2024-06-13 13:00:00+00:00,0.0
2024-06-13 14:00:00+00:00,0.0
2024-06-13 15:00:00+00:00,0.0
2024-06-13 17:00:00+00:00,0.0
2024-06-13 18:00:00+00:00,0.0
2024-06-13 19:00:00+00:00,0.0
2024-06-14 13:00:00+00:00,0.0
2024-06-14 14:00:00+00:00,0.0
2024-06-14 15:00:00+00:00,0.0
2024-06-14 17:00:00+00:00,0.0
2024-06-14 19:00:00+00:00,0.0
2024-06-17 13:00:00+00:00,0.0
2024-06-17 14:00:00+00:00,0.0
2024-06-17 16:00:00+00:00,0.0
2024-06-17 17:00:00+00:00,0.0
2024-06-17 18:00:00+00:00,0.0
2024-06-17 19:00:00+00:00,0.0
2024-06-18 15:00:00+00:00,0.0
2024-06-18 16:00:00+00:00,0.0
2024-06-18 17:00:00+00:00,0.0
2024-06-18 18:00:00+00:00,0.0
2024-06-18 19:00:00+00:00,0.0
2024-06-20 13:00:00+00:00,0.0
2024-06-20 15:00:00+00:00,0.0
2024-06-20 16:00:00+00:00,0.0
2024-06-20 17:00:00+00:00,0.0
2024-06-20 18:00:00+00:00,0.0
2024-06-21 13:00:00+00:00,0.0
2024-06-21 17:00:00+00:00,0.0
2024-06-21 19:00:00+00:00,0.0
2024-06-24 13:00:00+00:00,0.0
2024-06-24 14:00:00+00:00,0.0
2024-06-24 15:00:00+00:00,0.0
2024-06-24 19:00:00+00:00,0.0
2024-06-25 13:00:00+00:00,0.0
2024-06-25 14:00:00+00:00,0.0
2024-06-25 15:00:00+00:00,0.0
2024-06-25 16:00:00+00:00,0.0
2024-06-25 17:00:00+00:00,0.0
2024-06-25 19:00:00+00:00,0.0
2024-06-26 13:00:00+00:00,0.0
2024-06-26 14:00:00+00:00,0.0
2024-06-26 15:00:00+00:00,0.0
2024-06-26 16:00:00+00:00,0.0
2024-06-26 18:00:00+00:00,0.0
2024-06-26 19:00:00+00:00,0.0
2024-06-27 14:00:00+00:00,0.0
2024-06-27 18:00:00+00:00,0.0
2024-06-27 19:00:00+00:00,0.0
2024-06-28 13:00:00+00:00,0.0
2024-06-28 15:00:00+00:00,0.0
2024-06-28 17:00:00+00:00,0.0
2024-06-28 18:00:00+00:00,0.0
2024-06-28 19:00:00+00:00,0.0
2024-07-01 13:00:00+00:00,0.0
2024-07-01 14:00:00+00:00,0.0
2024-07-01 15:00:00+00:00,0.0
2024-07-01 17:00:00+00:00,0.0
2024-07-01 18:00:00+00:00,0.0
2024-07-02 13:00:00+00:00,0.0
2024-07-02 16:00:00+00:00,0.0
2024-07-02 18:00:00+00:00,0.0
2024-07-02 19:00:00+00:00,0.0
2024-07-03 13:00:00+00:00,0.0
2024-07-03 14:00:00+00:00,0.0
2024-07-03 15:00:00+00:00,0.0
2024-07-05 13:00:00+00:00,0.0
2024-07-05 15:00:00+00:00,0.0
2024-07-05 16:00:00+00:00,0.0
2024-07-05 18:00:00+00:00,0.0
2024-07-05 19:00:00+00:00,0.0
2024-07-08 13:00:00+00:00,0.0
2024-07-08 14:00:00+00:00,0.0
2024-07-08 15:00:00+00:00,0.0
2024-07-08 16:00:00+00:00,0.0
2024-07-08 17:00:00+00:00,0.0
2024-07-08 18:00:00+00:00,0.0
2024-07-08 19:00:00+00:00,0.0
2024-07-09 13:00:00+00:00,0.0
2024-07-09 14:00:00+00:00,0.0
2024-07-09 16:00:00+00:00,0.0
2024-07-09 17:00:00+00:00,0.0
2024-07-09 18:00:00+00:00,0.0
2024-07-10 13:00:00+00:00,0.0
2024-07-10 14:00:00+00:00,0.0
2024-07-10 15:00:00+00:00,0.0
2024-07-10 16:00:00+00:00,0.0
2024-07-10 17:00:00+00:00,0.0
2024-07-10 18:00:00+00:00,0.0
2024-07-10 19:00:00+00:00,0.0
2024-07-11 13:00:00+00:00,0.0
2024-07-11 14:00:00+00:00,0.0
2024-07-11 15:00:00+00:00,0.0
2024-07-11 16:00:00+00:00,0.0
2024-07-11 17:00:00+00:00,0.0
2024-07-11 18:00:00+00:00,0.0
2024-07-12 13:00:00+00:00,0.0
2024-07-12 14:00:00+00:00,0.0
2024-07-12 16:00:00+00:00,0.0
2024-07-15 14:00:00+00:00,0.0
2024-07-15 15:00:00+00:00,0.0
2024-07-15 16:00:00+00:00,0.0
2024-07-15 17:00:00+00:00,0.0
2024-07-15 18:00:00+00:00,0.0
2024-07-15 19:00:00+00:00,0.0
2024-07-16 13:00:00+00:00,0.0
2024-07-16 14:00:00+00:00,0.0
2024-07-16 17:00:00+00:00,0.0
2024-07-16 18:00:00+00:00,0.0
2024-07-16 19:00:00+00:00,0.0
2024-07-17 13:00:00+00:00,0.0
2024-07-17 14:00:00+00:00,0.0
2024-07-17 16:00:00+00:00,0.0
2024-07-17 17:00:00+00:00,0.0
2024-07-17 18:00:00+00:00,0.0
2024-07-17 19:00:00+00:00,0.0
2024-07-18 13:00:00+00:00,0.0
2024-07-18 14:00:00+00:00,0.0
2024-07-18 18:00:00+00:00,0.0
2024-07-18 19:00:00+00:00,0.0
2024-07-19 13:00:00+00:00,0.0
2024-07-19 14:00:00+00:00,0.0
2024-07-19 15:00:00+00:00,0.0
2024-07-19 17:00:00+00:00,0.0
2024-07-19 19:00:00+00:00,0.0
2024-07-22 13:00:00+00:00,0.0
2024-07-22 14:00:00+00:00,0.0
2024-07-22 15:00:00+00:00,0.0
2024-07-22 18:00:00+00:00,0.0
2024-07-22 19:00:00+00:00,0.0
2024-07-23 13:00:00+00:00,0.0
2024-07-23 15:00:00+00:00,0.0
2024-07-23 18:00:00+00:00,0.0
2024-07-23 19:00:00+00:00,0.0
2024-07-24 13:00:00+00:00,0.0
2024-07-24 14:00:00+00:00,0.0
2024-07-24 15:00:00+00:00,0.0
2024-07-24 16:00:00+00:00,0.0
2024-07-24 17:00:00+00:00,0.0
2024-07-24 18:00:00+00:00,0.0
2024-07-24 19:00:00+00:00,0.0
2024-07-25 13:00:00+00:00,0.0
2024-07-25 14:00:00+00:00,0.0
2024-07-25 15:00:00+00:00,0.0
2024-07-25 16:00:00+00:00,0.0
2024-07-25 17:00:00+00:00,0.0
2024-07-25 18:00:00+00:00,0.0
2024-07-25 19:00:00+00:00,0.0
2024-07-26 13:00:00+00:00,0.0
2024-07-26 14:00:00+00:00,0.0
2024-07-26 15:00:00+00:00,0.0
2024-07-26 16:00:00+00:00,0.0
2024-07-26 17:00:00+00:00,0.0
2024-07-26 18:00:00+00:00,0.0
2024-07-26 19:00:00+00:00,0.0
2024-07-29 13:00:00+00:00,0.0
2024-07-29 14:00:00+00:00,0.0
2024-07-29 15:00:00+00:00,0.0
2024-07-29 16:00:00+00:00,0.0
2024-07-29 18:00:00+00:00,0.0
2024-07-30 13:00:00+00:00,0.0
2024-07-30 14:00:00+00:00,0.0
2024-07-30 15:00:00+00:00,0.0
2024-07-30 16:00:00+00:00,0.0
2024-07-30 17:00:00+00:00,0.0
2024-07-30 18:00:00+00:00,0.0
2024-07-30 19:00:00+00:00,0.0
2024-07-31 13:00:00+00:00,0.0
2024-07-31 14:00:00+00:00,0.0
2024-07-31 16:00:00+00:00,0.0
2024-07-31 17:00:00+00:00,0.0
2024-07-31 18:00:00+00:00,0.0
2024-07-31 19:00:00+00:00,0.0
2024-08-01 13:00:00+00:00,0.0
2024-08-01 14:00:00+00:00,0.0
2024-08-01 15:00:00+00:00,0.0
2024-08-01 16:00:00+00:00,0.0
2024-08-01 17:00:00+00:00,0.0
2024-08-01 18:00:00+00:00,0.0
2024-08-01 19:00:00+00:00,0.0
2024-08-02 13:00:00+00:00,0.0
2024-08-02 14:00:00+00:00,0.0
2024-08-02 15:00:00+00:00,0.0
2024-08-02 16:00:00+00:00,0.0
2024-08-02 17:00:00+00:00,0.0
2024-08-02 19:00:00+00:00,0.0
2024-08-05 13:00:00+00:00,0.0
2024-08-05 14:00:00+00:00,0.0
2024-08-05 15:00:00+00:00,0.0
2024-08-05 16:00:00+00:00,0.0
2024-08-05 17:00:00+00:00,0.0
2024-08-05 18:00:00+00:00,0.0
2024-08-05 19:00:00+00:00,0.0
2024-08-06 13:00:00+00:00,0.0
2024-08-06 14:00:00+00:00,0.0
2024-08-06 15:00:00+00:00,0.0
2024-08-06 16:00:00+00:00,0.0
2024-08-06 17:00:00+00:00,0.0
2024-08-06 18:00:00+00:00,0.0
2024-08-06 19:00:00+00:00,0.0
2024-08-07 13:00:00+00:00,0.0
2024-08-07 14:00:00+00:00,0.0
2024-08-07 15:00:00+00:00,0.0
2024-08-07 16:00:00+00:00,0.0
2024-08-07 17:00:00+00:00,0.0
2024-08-07 19:00:00+00:00,0.0
2024-08-08 13:00:00+00:00,0.0
2024-08-08 14:00:00+00:00,0.0
2024-08-08 15:00:00+00:00,0.0
2024-08-08 16:00:00+00:00,0.0
2024-08-08 17:00:00+00:00,0.0
2024-08-08 18:00:00+00:00,0.0
2024-08-08 19:00:00+00:00,0.0
2024-08-09 13:00:00+00:00,0.0
2024-08-09 14:00:00+00:00,0.0
2024-08-09 15:00:00+00:00,0.0
2024-08-09 16:00:00+00:00,0.0
2024-08-09 17:00:00+00:00,0.0
2024-08-09 18:00:00+00:00,0.0
2024-08-12 14:00:00+00:00,0.0
2024-08-12 16:00:00+00:00,0.0
2024-08-12 17:00:00+00:00,0.0
2024-08-12 18:00:00+00:00,0.0
2024-08-12 19:00:00+00:00,0.0
2024-08-13 13:00:00+00:00,0.0
2024-08-13 16:00:00+00:00,0.0
2024-08-13 18:00:00+00:00,0.0
2024-08-13 19:00:00+00:00,0.0
2024-08-14 13:00:00+00:00,0.0
2024-08-14 14:00:00+00:00,0.0
2024-08-14 15:00:00+00:00,0.0
2024-08-14 18:00:00+00:00,0.0
2024-08-14 19:00:00+00:00,0.0
2024-08-15 13:00:00+00:00,0.0
2024-08-15 14:00:00+00:00,0.0
2024-08-15 16:00:00+00:00,0.0
2024-08-15 17:00:00+00:00,0.0
2024-08-15 18:00:00+00:00,0.0
2024-08-16 13:00:00+00:00,0.0
2024-08-16 14:00:00+00:00,0.0
2024-08-16 15:00:00+00:00,0.0
2024-08-16 17:00:00+00:00,0.0
2024-08-16 18:00:00+00:00,0.0
2024-08-16 19:00:00+00:00,0.0
2024-08-19 13:00:00+00:00,0.0
2024-08-19 14:00:00+00:00,0.0
2024-08-19 19:00:00+00:00,0.0
2024-08-20 13:00:00+00:00,0.0
2024-08-20 15:00:00+00:00,0.0
2024-08-20 17:00:00+00:00,0.0
2024-08-20 18:00:00+00:00,0.0
2024-08-21 13:00:00+00:00,0.0
2024-08-21 14:00:00+00:00,0.0
2024-08-21 15:00:00+00:00,0.0
2024-08-21 16:00:00+00:00,0.0
2024-08-21 17:00:00+00:00,0.0
2024-08-21 19:00:00+00:00,0.0
2024-08-22 13:00:00+00:00,0.0
2024-08-22 14:00:00+00:00,0.0
2024-08-22 15:00:00+00:00,0.0
2024-08-22 17:00:00+00:00,0.0
2024-08-22 19:00:00+00:00,0.0
2024-08-23 13:00:00+00:00,0.0
2024-08-23 14:00:00+00:00,0.0
2024-08-23 15:00:00+00:00,0.0
2024-08-23 16:00:00+00:00,0.0
2024-08-23 17:00:00+00:00,0.0
2024-08-23 18:00:00+00:00,0.0
2024-08-26 13:00:00+00:00,0.0
2024-08-26 14:00:00+00:00,0.0
2024-08-26 15:00:00+00:00,0.0
2024-08-26 18:00:00+00:00,0.0
2024-08-26 19:00:00+00:00,0.0
2024-08-27 13:00:00+00:00,0.0
2024-08-27 14:00:00+00:00,0.0
2024-08-27 16:00:00+00:00,0.0
2024-08-27 19:00:00+00:00,0.0
2024-08-28 16:00:00+00:00,0.0
2024-08-28 17:00:00+00:00,0.0
2024-08-28 19:00:00+00:00,0.0
2024-08-29 13:00:00+00:00,0.0
2024-08-29 14:00:00+00:00,0.0
2024-08-29 15:00:00+00:00,0.0
2024-08-29 16:00:00+00:00,0.0
2024-08-29 17:00:00+00:00,0.0
2024-08-29 19:00:00+00:00,0.0
2024-08-30 13:00:00+00:00,0.0
2024-08-30 14:00:00+00:00,0.0
2024-08-30 16:00:00+00:00,0.0
2024-08-30 19:00:00+00:00,0.0
2024-09-03 13:00:00+00:00,0.0
2024-09-03 14:00:00+00:00,0.0
2024-09-03 16:00:00+00:00,0.0
2024-09-03 17:00:00+00:00,0.0
2024-09-03 19:00:00+00:00,0.0
2024-09-04 13:00:00+00:00,0.0
2024-09-04 14:00:00+00:00,0.0
2024-09-04 19:00:00+00:00,0.0
2024-09-05 13:00:00+00:00,0.0
2024-09-05 14:00:00+00:00,0.0
2024-09-05 15:00:00+00:00,0.0
2024-09-05 16:00:00+00:00,0.0
2024-09-05 17:00:00+00:00,0.0
2024-09-05 19:00:00+00:00,0.0
2024-09-06 13:00:00+00:00,0.0
2024-09-06 14:00:00+00:00,0.0
2024-09-06 16:00:00+00:00,0.0
2024-09-06 18:00:00+00:00,0.0
2024-09-06 19:00:00+00:00,0.0
2024-09-09 13:00:00+00:00,0.0
2024-09-09 14:00:00+00:00,0.0
2024-09-09 15:00:00+00:00,0.0
2024-09-09 17:00:00+00:00,0.0
2024-09-09 18:00:00+00:00,0.0
2024-09-09 19:00:00+00:00,0.0
2024-09-10 13:00:00+00:00,0.0
2024-09-10 14:00:00+00:00,0.0
2024-09-10 15:00:00+00:00,0.0
2024-09-10 17:00:00+00:00,0.0
2024-09-10 18:00:00+00:00,0.0
2024-09-10 19:00:00+00:00,0.0
2024-09-11 13:00:00+00:00,0.0
2024-09-11 14:00:00+00:00,0.0
2024-09-11 15:00:00+00:00,0.0
2024-09-11 16:00:00+00:00,0.0
2024-09-11 19:00:00+00:00,0.0
2024-09-12 13:00:00+00:00,0.0
2024-09-12 14:00:00+00:00,0.0
2024-09-12 15:00:00+00:00,0.0
2024-09-12 16:00:00+00:00,0.0
2024-09-12 17:00:00+00:00,0.0
2024-09-12 18:00:00+00:00,0.0
2024-09-12 19:00:00+00:00,0.0
2024-09-13 13:00:00+00:00,0.0
2024-09-13 14:00:00+00:00,0.0
2024-09-13 15:00:00+00:00,0.0
2024-09-16 13:00:00+00:00,0.0
2024-09-16 14:00:00+00:00,0.0
2024-09-16 15:00:00+00:00,0.0
2024-09-16 16:00:00+00:00,0.0
2024-09-16 17:00:00+00:00,0.0
2024-09-16 18:00:00+00:00,0.0
2024-09-16 19:00:00+00:00,0.0
2024-09-17 13:00:00+00:00,0.0
2024-09-17 14:00:00+00:00,0.0
2024-09-17 16:00:00+00:00,0.0
2024-09-17 18:00:00+00:00,0.0
2024-09-17 19:00:00+00:00,0.0
2024-09-18 13:00:00+00:00,0.0
2024-09-18 14:00:00+00:00,0.0
2024-09-18 15:00:00+00:00,0.0
2024-09-18 17:00:00+00:00,0.0
2024-09-18 18:00:00+00:00,0.0
2024-09-18 19:00:00+00:00,0.0
2024-09-19 13:00:00+00:00,0.0
2024-09-19 14:00:00+00:00,0.0
2024-09-19 15:00:00+00:00,0.0
2024-09-19 17:00:00+00:00,0.0
2024-09-19 18:00:00+00:00,0.0
2024-09-20 13:00:00+00:00,0.0
2024-09-20 18:00:00+00:00,0.0
2024-09-20 19:00:00+00:00,0.0
2024-09-23 13:00:00+00:00,0.0
2024-09-23 14:00:00+00:00,0.0
2024-09-23 15:00:00+00:00,0.0
2024-09-23 16:00:00+00:00,0.0
2024-09-23 18:00:00+00:00,0.0
2024-09-23 19:00:00+00:00,0.0
2024-09-24 13:00:00+00:00,0.0
2024-09-24 14:00:00+00:00,0.0
2024-09-24 15:00:00+00:00,0.0
2024-09-24 18:00:00+00:00,0.0
2024-09-24 19:00:00+00:00,0.0
2024-09-25 13:00:00+00:00,0.0
2024-09-25 14:00:00+00:00,0.0
2024-09-25 16:00:00+00:00,0.0
2024-09-25 18:00:00+00:00,0.0
2024-09-26 13:00:00+00:00,104.01672689799987
2024-09-26 14:00:00+00:00,104.11705163650781
2024-09-26 15:00:00+00:00,142.27125253276162
2024-09-26 16:00:00+00:00,129.320536791254
2024-09-26 17:00:00+00:00,141.16516642675754
2024-09-26 18:00:00+00:00,179.04011719196794
2024-09-26 19:00:00+00:00,162.02250446779234
2024-09-27 13:00:00+00:00,210.7555006517369
2024-09-27 14:00:00+00:00,239.69615879693245
2024-09-27 16:00:00+00:00,219.03318662283058
2024-09-27 17:00:00+00:00,193.11638554584263
2024-09-27 18:00:00+00:00,183.33596798535953
2024-09-27 19:00:00+00:00,193.61036339099314
2024-09-30 13:00:00+00:00,169.17862998704967
2024-09-30 14:00:00+00:00,152.36145214589638
2024-09-30 15:00:00+00:00,141.77570810093874
2024-09-30 16:00:00+00:00,144.06750442172154
2024-09-30 17:00:00+00:00,136.3980185488215
2024-09-30 19:00:00+00:00,115.18320237670832
2024-10-01 13:00:00+00:00,105.76445022097155
2024-10-01 14:00:00+00:00,111.07386628924611
2024-10-01 15:00:00+00:00,113.51000324047709
2024-10-01 16:00:00+00:00,125.52727051248013
2024-10-01 17:00:00+00:00,103.90142151866407
2024-10-01 19:00:00+00:00,112.41523388796801
2024-10-02 13:00:00+00:00,120.11580505902836
2024-10-02 14:00:00+00:00,129.14170272424647
2024-10-02 15:00:00+00:00,135.90781539738606
2024-10-02 16:00:00+00:00,124.30879760648791
2024-10-02 18:00:00+00:00,116.91310977785953
2024-10-02 19:00:00+00:00,97.95870285479961
2024-10-03 13:00:00+00:00,73.86774229443606
2024-10-03 19:00:00+00:00,94.07000640178589
2024-10-04 13:00:00+00:00,103.04298387798033
2024-10-04 15:00:00+00:00,128.43823465776458
2024-10-04 16:00:00+00:00,114.54687247452856
2024-10-04 17:00:00+00:00,121.94175638203507
2024-10-04 18:00:00+00:00,117.24956187882736
2024-10-04 19:00:00+00:00,106.99870238391904
2024-10-07 13:00:00+00:00,135.24742381012032
2024-10-07 14:00:00+00:00,133.01911306934696
2024-10-07 16:00:00+00:00,135.26408184400276
2024-10-07 18:00:00+00:00,150.46176597189466
2024-10-08 13:00:00+00:00,78.47017745012089
2024-10-08 14:00:00+00:00,87.13010364157047
2024-10-08 15:00:00+00:00,76.64875218333995
2024-10-08 16:00:00+00:00,60.9165236116972
2024-10-08 17:00:00+00:00,45.446593031097194
2024-10-09 13:00:00+00:00,-4.486995343157773
2024-10-09 14:00:00+00:00,12.520531941023584
2024-10-09 16:00:00+00:00,-1.213490525583408
2024-10-10 13:00:00+00:00,-35.25697971489033
2024-10-10 14:00:00+00:00,-56.74082965424644
2024-10-10 15:00:00+00:00,-48.10723310299534
2024-10-10 16:00:00+00:00,-45.24751526306636
2024-10-11 13:00:00+00:00,-27.98253281274643
2024-10-11 17:00:00+00:00,46.40396187872366
2024-10-14 13:00:00+00:00,3.60252470089862
2024-10-14 14:00:00+00:00,-11.920824524209406
2024-10-14 15:00:00+00:00,-7.682745376445137
2024-10-14 18:00:00+00:00,-29.622318457008955
2024-10-14 19:00:00+00:00,-30.098892960291167
2024-10-15 13:00:00+00:00,-44.158161580754594
2024-10-15 14:00:00+00:00,-38.35754545007797
2024-10-15 16:00:00+00:00,-38.94436952672548
2024-10-15 17:00:00+00:00,-27.48224773070284
2024-10-15 18:00:00+00:00,-31.40921739215541
2024-10-16 13:00:00+00:00,-10.902256751495418
2024-10-16 14:00:00+00:00,-33.31092582833119
2024-10-16 15:00:00+00:00,-52.33666949240199
2024-10-16 17:00:00+00:00,-56.74935018457897
2024-10-16 19:00:00+00:00,-55.69122383698888
2024-10-17 14:00:00+00:00,-21.659662275971876
2024-10-17 17:00:00+00:00,12.32755193820423
2024-10-17 19:00:00+00:00,43.154402042441376
2024-10-18 13:00:00+00:00,-43.82391758683298
2024-10-18 14:00:00+00:00,-61.1884769225374
2024-10-18 15:00:00+00:00,-63.83062189457219
2024-10-18 16:00:00+00:00,-61.35718595127308
2024-10-18 18:00:00+00:00,-69.73431691969719
2024-10-18 19:00:00+00:00,-77.88994710551037
2024-10-21 14:00:00+00:00,-59.39777454455165
2024-10-21 15:00:00+00:00,-62.6321720531984
2024-10-21 16:00:00+00:00,-70.48329754861615
2024-10-21 17:00:00+00:00,-83.17194776100204
2024-10-21 18:00:00+00:00,-84.55668336788146
2024-10-21 19:00:00+00:00,-84.81274661538485
2024-10-22 13:00:00+00:00,-103.61372692410615
2024-10-22 14:00:00+00:00,-121.93041600173268
2024-10-22 16:00:00+00:00,-149.4385613365717
2024-10-22 17:00:00+00:00,-139.8992641854295
2024-10-22 18:00:00+00:00,-112.95781117953085
2024-10-22 19:00:00+00:00,-124.89341454033956
2024-10-23 13:00:00+00:00,-158.40344592157436
2024-10-23 14:00:00+00:00,-129.68196461176555
2024-10-23 15:00:00+00:00,-141.36842395637515
2024-10-23 16:00:00+00:00,-140.06275122686068
2024-10-23 17:00:00+00:00,-142.7789969686415
2024-10-23 18:00:00+00:00,-154.71331921719718
2024-10-23 19:00:00+00:00,-145.25472468917593
2024-10-24 13:00:00+00:00,-130.7180500421177
2024-10-24 14:00:00+00:00,-105.0948653528203
2024-10-24 15:00:00+00:00,-95.88754616846529
2024-10-24 16:00:00+00:00,-100.45349119283546
2024-10-24 17:00:00+00:00,-84.07212327040514
2024-10-24 18:00:00+00:00,-68.4077719018038
2024-10-25 13:00:00+00:00,-44.41247909991688
2024-10-25 15:00:00+00:00,-37.26848906770094
2024-10-25 16:00:00+00:00,-18.621567915209678
2024-10-25 19:00:00+00:00,-12.380737484223998
2024-10-28 13:00:00+00:00,-49.94032415045473
2024-10-28 14:00:00+00:00,-56.98324062678993
2024-10-28 15:00:00+00:00,-54.272845797718375
2024-10-28 16:00:00+00:00,-56.285764641450314
2024-10-28 17:00:00+00:00,-63.98088372573958
2024-10-28 18:00:00+00:00,-65.77151522330085
2024-10-28 19:00:00+00:00,-54.867390111565655
2024-10-29 13:00:00+00:00,-39.44180594559722
2024-10-29 14:00:00+00:00,27.395554185483682
2024-10-29 15:00:00+00:00,-4.713965841303406
2024-10-29 16:00:00+00:00,-8.172197165368782
2024-10-29 17:00:00+00:00,-16.116833075219645
2024-10-29 18:00:00+00:00,-21.358130210261905
2024-10-29 19:00:00+00:00,-20.922873668089302
2024-10-30 13:00:00+00:00,-45.339106554255316
2024-10-30 14:00:00+00:00,-54.676483782600805
2024-10-30 15:00:00+00:00,-49.14007358937326
2024-10-30 16:00:00+00:00,-36.93166176760266
2024-10-30 17:00:00+00:00,-10.341521246168497
2024-10-30 18:00:00+00:00,-21.8541344756523
2024-10-30 19:00:00+00:00,-10.297975060588703
2024-10-31 13:00:00+00:00,34.680724538611635
2024-10-31 15:00:00+00:00,66.99286041927408
2024-10-31 18:00:00+00:00,166.80043357848808
2024-10-31 19:00:00+00:00,166.80043357848808
2024-11-01 13:00:00+00:00,166.80043357848808
2024-11-01 15:00:00+00:00,166.80043357848808
2024-11-01 17:00:00+00:00,166.80043357848808
2024-11-01 18:00:00+00:00,166.80043357848808
2024-11-01 19:00:00+00:00,166.80043357848808
2024-11-04 14:00:00+00:00,166.80043357848808
2024-11-04 16:00:00+00:00,166.80043357848808
2024-11-04 18:00:00+00:00,166.80043357848808
2024-11-04 19:00:00+00:00,166.80043357848808
2024-11-04 20:00:00+00:00,166.80043357848808
2024-11-05 14:00:00+00:00,166.80043357848808
2024-11-05 15:00:00+00:00,166.80043357848808
2024-11-05 16:00:00+00:00,166.80043357848808
2024-11-05 18:00:00+00:00,166.80043357848808
2024-11-05 19:00:00+00:00,166.80043357848808
2024-11-05 20:00:00+00:00,166.80043357848808
2024-11-06 14:00:00+00:00,166.80043357848808
2024-11-06 15:00:00+00:00,166.80043357848808
2024-11-06 16:00:00+00:00,166.80043357848808
2024-11-06 17:00:00+00:00,166.80043357848808
2024-11-06 19:00:00+00:00,166.80043357848808
2024-11-06 20:00:00+00:00,166.80043357848808
2024-11-07 14:00:00+00:00,166.80043357848808
2024-11-07 15:00:00+00:00,166.80043357848808
2024-11-07 17:00:00+00:00,166.80043357848808
2024-11-07 18:00:00+00:00,166.80043357848808
2024-11-07 19:00:00+00:00,166.80043357848808
2024-11-08 14:00:00+00:00,166.80043357848808
2024-11-08 15:00:00+00:00,166.80043357848808
2024-11-08 16:00:00+00:00,166.80043357848808
2024-11-08 17:00:00+00:00,166.80043357848808
2024-11-08 18:00:00+00:00,166.80043357848808
2024-11-08 19:00:00+00:00,166.80043357848808
2024-11-08 20:00:00+00:00,166.80043357848808
2024-11-11 14:00:00+00:00,166.80043357848808
2024-11-11 15:00:00+00:00,166.80043357848808
2024-11-11 18:00:00+00:00,166.80043357848808
2024-11-11 19:00:00+00:00,166.80043357848808
2024-11-11 20:00:00+00:00,166.80043357848808
2024-11-12 14:00:00+00:00,166.80043357848808
2024-11-12 15:00:00+00:00,166.80043357848808
2024-11-12 16:00:00+00:00,166.80043357848808
2024-11-12 17:00:00+00:00,166.80043357848808
2024-11-12 18:00:00+00:00,166.80043357848808
2024-11-12 19:00:00+00:00,166.80043357848808
2024-11-12 20:00:00+00:00,166.80043357848808
2024-11-13 14:00:00+00:00,166.80043357848808
2024-11-13 15:00:00+00:00,166.80043357848808
2024-11-13 17:00:00+00:00,166.80043357848808
2024-11-13 18:00:00+00:00,166.80043357848808
2024-11-13 19:00:00+00:00,166.80043357848808
2024-11-13 20:00:00+00:00,166.80043357848808
2024-11-14 15:00:00+00:00,166.80043357848808
2024-11-14 16:00:00+00:00,166.80043357848808
2024-11-14 17:00:00+00:00,166.80043357848808
2024-11-14 18:00:00+00:00,166.80043357848808
2024-11-14 19:00:00+00:00,166.80043357848808
2024-11-14 20:00:00+00:00,166.80043357848808
2024-11-15 14:00:00+00:00,166.80043357848808
2024-11-15 15:00:00+00:00,166.80043357848808
2024-11-15 16:00:00+00:00,166.80043357848808
2024-11-15 17:00:00+00:00,166.80043357848808
2024-11-15 18:00:00+00:00,166.80043357848808
2024-11-15 19:00:00+00:00,166.80043357848808
2024-11-15 20:00:00+00:00,166.80043357848808
2024-11-18 14:00:00+00:00,166.80043357848808
2024-11-18 15:00:00+00:00,166.80043357848808
2024-11-18 17:00:00+00:00,166.80043357848808
2024-11-18 18:00:00+00:00,166.80043357848808
2024-11-18 19:00:00+00:00,166.80043357848808
2024-11-18 20:00:00+00:00,166.80043357848808
2024-11-19 14:00:00+00:00,166.80043357848808
2024-11-19 15:00:00+00:00,166.80043357848808
2024-11-19 16:00:00+00:00,166.80043357848808
2024-11-19 17:00:00+00:00,166.80043357848808
2024-11-19 18:00:00+00:00,166.80043357848808
2024-11-19 19:00:00+00:00,166.80043357848808
2024-11-19 20:00:00+00:00,166.80043357848808
2024-11-20 14:00:00+00:00,166.80043357848808
2024-11-20 15:00:00+00:00,166.80043357848808
2024-11-20 16:00:00+00:00,166.80043357848808
2024-11-20 17:00:00+00:00,166.80043357848808
2024-11-20 18:00:00+00:00,166.80043357848808
2024-11-20 19:00:00+00:00,166.80043357848808
2024-11-20 20:00:00+00:00,166.80043357848808
2024-11-21 14:00:00+00:00,166.80043357848808
2024-11-21 15:00:00+00:00,166.80043357848808
2024-11-21 16:00:00+00:00,166.80043357848808
2024-11-21 17:00:00+00:00,166.80043357848808
2024-11-21 18:00:00+00:00,166.80043357848808
2024-11-21 19:00:00+00:00,166.80043357848808
2024-11-21 20:00:00+00:00,166.80043357848808
2024-11-22 14:00:00+00:00,166.80043357848808
2024-11-22 15:00:00+00:00,166.80043357848808
2024-11-22 16:00:00+00:00,166.80043357848808
2024-11-22 18:00:00+00:00,166.80043357848808
2024-11-22 19:00:00+00:00,166.80043357848808
2024-11-25 14:00:00+00:00,166.80043357848808
2024-11-25 15:00:00+00:00,166.80043357848808
2024-11-25 16:00:00+00:00,166.80043357848808
2024-11-25 17:00:00+00:00,166.80043357848808
2024-11-25 18:00:00+00:00,166.80043357848808
2024-11-25 19:00:00+00:00,166.80043357848808
2024-11-25 20:00:00+00:00,166.80043357848808
2024-11-26 14:00:00+00:00,166.80043357848808
2024-11-26 15:00:00+00:00,166.80043357848808
2024-11-26 16:00:00+00:00,166.80043357848808
2024-11-26 17:00:00+00:00,166.80043357848808
2024-11-26 18:00:00+00:00,166.80043357848808
2024-11-26 19:00:00+00:00,166.80043357848808
2024-11-26 20:00:00+00:00,166.80043357848808
2024-11-27 14:00:00+00:00,166.80043357848808
2024-11-27 15:00:00+00:00,166.80043357848808
2024-11-27 16:00:00+00:00,166.80043357848808
2024-11-27 17:00:00+00:00,166.80043357848808
2024-11-27 18:00:00+00:00,166.80043357848808
2024-11-27 19:00:00+00:00,166.80043357848808
2024-11-27 20:00:00+00:00,166.80043357848808
2024-11-29 14:00:00+00:00,166.80043357848808
2024-11-29 15:00:00+00:00,166.80043357848808
2024-11-29 16:00:00+00:00,166.80043357848808
2024-12-02 14:00:00+00:00,166.80043357848808
2024-12-02 15:00:00+00:00,166.80043357848808
2024-12-02 17:00:00+00:00,166.80043357848808
2024-12-02 18:00:00+00:00,166.80043357848808
2024-12-02 19:00:00+00:00,166.80043357848808
2024-12-02 20:00:00+00:00,166.80043357848808
2024-12-03 14:00:00+00:00,166.80043357848808
2024-12-03 15:00:00+00:00,166.80043357848808
2024-12-03 16:00:00+00:00,166.80043357848808
2024-12-03 17:00:00+00:00,166.80043357848808
2024-12-03 18:00:00+00:00,166.80043357848808
2024-12-03 19:00:00+00:00,166.80043357848808
2024-12-03 20:00:00+00:00,166.80043357848808
2024-12-04 14:00:00+00:00,166.80043357848808
2024-12-04 15:00:00+00:00,166.80043357848808
2024-12-04 16:00:00+00:00,166.80043357848808
2024-12-04 17:00:00+00:00,166.80043357848808
2024-12-04 18:00:00+00:00,166.80043357848808
2024-12-04 19:00:00+00:00,166.80043357848808
2024-12-05 14:00:00+00:00,166.80043357848808
2024-12-05 15:00:00+00:00,166.80043357848808
2024-12-05 16:00:00+00:00,166.80043357848808
2024-12-05 17:00:00+00:00,166.80043357848808
2024-12-05 18:00:00+00:00,166.80043357848808
2024-12-05 19:00:00+00:00,166.80043357848808
2024-12-05 20:00:00+00:00,166.80043357848808
2024-12-06 14:00:00+00:00,166.80043357848808
2024-12-06 15:00:00+00:00,166.80043357848808
2024-12-06 16:00:00+00:00,166.80043357848808
2024-12-06 17:00:00+00:00,166.80043357848808
2024-12-06 18:00:00+00:00,166.80043357848808
2024-12-06 20:00:00+00:00,166.80043357848808
2024-12-09 14:00:00+00:00,166.80043357848808
2024-12-09 15:00:00+00:00,166.80043357848808
2024-12-09 16:00:00+00:00,166.80043357848808
2024-12-09 17:00:00+00:00,166.80043357848808
2024-12-09 19:00:00+00:00,166.80043357848808
2024-12-09 20:00:00+00:00,166.80043357848808
2024-12-10 14:00:00+00:00,166.80043357848808
2024-12-10 15:00:00+00:00,166.80043357848808
2024-12-10 16:00:00+00:00,166.80043357848808
2024-12-10 18:00:00+00:00,166.80043357848808
2024-12-10 19:00:00+00:00,166.80043357848808
2024-12-11 14:00:00+00:00,166.80043357848808
2024-12-11 15:00:00+00:00,166.80043357848808
2024-12-11 16:00:00+00:00,166.80043357848808
2024-12-11 17:00:00+00:00,166.80043357848808
2024-12-11 18:00:00+00:00,166.80043357848808
2024-12-11 19:00:00+00:00,166.80043357848808
2024-12-11 20:00:00+00:00,166.80043357848808
2024-12-12 14:00:00+00:00,166.80043357848808
2024-12-12 15:00:00+00:00,166.80043357848808
2024-12-12 16:00:00+00:00,166.80043357848808
2024-12-12 18:00:00+00:00,166.80043357848808
2024-12-12 19:00:00+00:00,166.80043357848808
2024-12-12 20:00:00+00:00,166.80043357848808
2024-12-13 16:00:00+00:00,166.80043357848808
2024-12-13 17:00:00+00:00,166.80043357848808
2024-12-13 19:00:00+00:00,166.80043357848808
2024-12-13 20:00:00+00:00,166.80043357848808
2024-12-16 14:00:00+00:00,166.80043357848808
2024-12-16 15:00:00+00:00,166.80043357848808
2024-12-16 16:00:00+00:00,166.80043357848808
2024-12-16 17:00:00+00:00,166.80043357848808
2024-12-16 18:00:00+00:00,166.80043357848808
2024-12-16 19:00:00+00:00,166.80043357848808
2024-12-16 20:00:00+00:00,166.80043357848808
2024-12-17 14:00:00+00:00,166.80043357848808
2024-12-17 15:00:00+00:00,166.80043357848808
2024-12-17 16:00:00+00:00,166.80043357848808
2024-12-17 17:00:00+00:00,166.80043357848808
2024-12-17 20:00:00+00:00,166.80043357848808
2024-12-18 14:00:00+00:00,166.80043357848808
2024-12-18 15:00:00+00:00,166.80043357848808
2024-12-18 16:00:00+00:00,166.80043357848808
2024-12-18 18:00:00+00:00,166.80043357848808
2024-12-18 19:00:00+00:00,166.80043357848808
2024-12-18 20:00:00+00:00,166.80043357848808
2024-12-19 14:00:00+00:00,166.80043357848808
2024-12-19 15:00:00+00:00,166.80043357848808
2024-12-19 16:00:00+00:00,166.80043357848808
2024-12-19 17:00:00+00:00,166.80043357848808
2024-12-19 18:00:00+00:00,166.80043357848808
2024-12-19 19:00:00+00:00,166.80043357848808
2024-12-19 20:00:00+00:00,166.80043357848808
2024-12-20 14:00:00+00:00,166.80043357848808
2024-12-20 15:00:00+00:00,166.80043357848808
2024-12-20 16:00:00+00:00,166.80043357848808
2024-12-20 17:00:00+00:00,166.80043357848808
2024-12-20 18:00:00+00:00,166.80043357848808
2024-12-20 19:00:00+00:00,166.80043357848808
2024-12-20 20:00:00+00:00,166.80043357848808
2024-12-23 14:00:00+00:00,166.80043357848808
2024-12-23 15:00:00+00:00,166.80043357848808
2024-12-23 16:00:00+00:00,166.80043357848808
2024-12-23 17:00:00+00:00,166.80043357848808
2024-12-23 18:00:00+00:00,166.80043357848808
2024-12-23 19:00:00+00:00,166.80043357848808
2024-12-23 20:00:00+00:00,166.80043357848808
2024-12-24 14:00:00+00:00,166.80043357848808
2024-12-24 15:00:00+00:00,166.80043357848808
2024-12-24 16:00:00+00:00,166.80043357848808
2024-12-26 14:00:00+00:00,166.80043357848808
2024-12-26 15:00:00+00:00,166.80043357848808
2024-12-26 16:00:00+00:00,166.80043357848808
2024-12-26 17:00:00+00:00,166.80043357848808
2024-12-26 18:00:00+00:00,166.80043357848808
2024-12-26 19:00:00+00:00,166.80043357848808
2024-12-26 20:00:00+00:00,166.80043357848808
2024-12-27 14:00:00+00:00,166.80043357848808
2024-12-27 15:00:00+00:00,166.80043357848808
2024-12-27 16:00:00+00:00,166.80043357848808
2024-12-27 17:00:00+00:00,166.80043357848808
2024-12-27 18:00:00+00:00,166.80043357848808
2024-12-27 19:00:00+00:00,166.80043357848808
2024-12-27 20:00:00+00:00,166.80043357848808
2024-12-30 14:00:00+00:00,166.80043357848808
2024-12-30 15:00:00+00:00,166.80043357848808
2024-12-30 16:00:00+00:00,166.80043357848808
2024-12-30 17:00:00+00:00,166.80043357848808
2024-12-30 18:00:00+00:00,166.80043357848808
2024-12-30 19:00:00+00:00,166.80043357848808
2024-12-30 20:00:00+00:00,166.80043357848808
2024-12-31 14:00:00+00:00,166.80043357848808
2024-12-31 15:00:00+00:00,166.80043357848808
2024-12-31 16:00:00+00:00,166.80043357848808
2024-12-31 17:00:00+00:00,166.80043357848808
2024-12-31 18:00:00+00:00,166.80043357848808
2024-12-31 19:00:00+00:00,166.80043357848808
2025-01-02 14:00:00+00:00,166.80043357848808
2025-01-02 15:00:00+00:00,166.80043357848808
2025-01-02 16:00:00+00:00,166.80043357848808
2025-01-02 17:00:00+00:00,166.19662595571162
2025-01-02 18:00:00+00:00,164.4364502015778
2025-01-02 19:00:00+00:00,160.1461226219509
2025-01-02 20:00:00+00:00,170.63054587494543
2025-01-03 14:00:00+00:00,249.11537287717707
2025-01-03 15:00:00+00:00,255.4259236169583
2025-01-03 16:00:00+00:00,235.13461747820327
2025-01-03 17:00:00+00:00,235.85371734366387
2025-01-03 18:00:00+00:00,233.11167621066267
2025-01-03 19:00:00+00:00,225.51815574852662
2025-01-03 20:00:00+00:00,232.20732440754455
2025-01-06 14:00:00+00:00,221.06091799392982
2025-01-06 15:00:00+00:00,191.5494016533917
2025-01-06 18:00:00+00:00,168.4133384807492
2025-01-06 19:00:00+00:00,185.64689579295504
2025-01-06 20:00:00+00:00,192.25637437435574
2025-01-07 14:00:00+00:00,142.40810881972317
2025-01-07 15:00:00+00:00,149.68545720729867
2025-01-07 16:00:00+00:00,160.41954419582038
2025-01-07 17:00:00+00:00,178.25052761608796
2025-01-07 18:00:00+00:00,169.2186621683436
2025-01-07 19:00:00+00:00,165.3317823432999
2025-01-07 20:00:00+00:00,169.11805747534146
2025-01-08 14:00:00+00:00,232.40430864158586
2025-01-08 15:00:00+00:00,254.81032926983585
2025-01-08 16:00:00+00:00,245.28144494358796
2025-01-08 17:00:00+00:00,251.39794708050073
2025-01-08 18:00:00+00:00,256.7977857962736
2025-01-08 19:00:00+00:00,255.1179559468638
2025-01-08 20:00:00+00:00,259.110655383157
2025-01-10 14:00:00+00:00,184.91341232042777
2025-01-10 15:00:00+00:00,235.37909185618835
2025-01-10 16:00:00+00:00,213.5702999513299
2025-01-10 17:00:00+00:00,231.45489774522355
2025-01-10 19:00:00+00:00,226.91395689121157
2025-01-10 20:00:00+00:00,207.89500956921538
2025-01-13 14:00:00+00:00,203.59361145888738
2025-01-13 15:00:00+00:00,182.9997298926103
2025-01-13 16:00:00+00:00,227.41062112106053
2025-01-13 17:00:00+00:00,233.61941097121263
2025-01-13 18:00:00+00:00,252.50405209435067
2025-01-13 19:00:00+00:00,260.77373920330575
2025-01-13 20:00:00+00:00,258.0547037544555
2025-01-14 14:00:00+00:00,248.514734230785
2025-01-14 15:00:00+00:00,235.26464140032377
2025-01-14 16:00:00+00:00,222.09942800502023
2025-01-14 17:00:00+00:00,215.73212060267338
2025-01-14 18:00:00+00:00,210.81102545140556
2025-01-14 19:00:00+00:00,201.38387268134412
2025-01-14 20:00:00+00:00,213.35073580761295
2025-01-15 14:00:00+00:00,256.905888439372
2025-01-15 15:00:00+00:00,254.00662235917994
2025-01-15 16:00:00+00:00,250.3594626021485
2025-01-15 18:00:00+00:00,262.2000590725549
2025-01-15 19:00:00+00:00,272.7415480677305
2025-01-15 20:00:00+00:00,248.5156544362039
2025-01-16 14:00:00+00:00,264.0767509607878
2025-01-16 15:00:00+00:00,259.09032919985094
2025-01-16 16:00:00+00:00,272.62216823616336
2025-01-16 17:00:00+00:00,259.74006010040483
2025-01-16 19:00:00+00:00,259.255321804275
2025-01-16 20:00:00+00:00,255.02705991333838
2025-01-17 14:00:00+00:00,285.99346818441677
2025-01-17 15:00:00+00:00,265.1125683972317
2025-01-17 16:00:00+00:00,240.13471248439706
2025-01-17 18:00:00+00:00,223.29063157073972
2025-01-17 19:00:00+00:00,207.98014832054116
2025-01-17 20:00:00+00:00,190.03671746203798
2025-01-21 14:00:00+00:00,183.76332921658826
2025-01-21 15:00:00+00:00,174.22081890986118
2025-01-21 16:00:00+00:00,174.22081890986118
2025-01-21 17:00:00+00:00,174.22081890986118
2025-01-21 19:00:00+00:00,174.22081890986118
2025-01-21 20:00:00+00:00,174.22081890986118
2025-01-22 14:00:00+00:00,174.22081890986118
2025-01-22 16:00:00+00:00,174.22081890986118
2025-01-22 17:00:00+00:00,174.22081890986118
2025-01-22 19:00:00+00:00,174.22081890986118
2025-01-22 20:00:00+00:00,174.22081890986118
2025-01-23 14:00:00+00:00,174.22081890986118
2025-01-23 15:00:00+00:00,174.22081890986118
2025-01-23 16:00:00+00:00,174.22081890986118
2025-01-23 17:00:00+00:00,174.22081890986118
2025-01-23 18:00:00+00:00,174.22081890986118
2025-01-23 19:00:00+00:00,174.22081890986118
2025-01-23 20:00:00+00:00,174.22081890986118
2025-01-24 14:00:00+00:00,174.22081890986118
2025-01-24 15:00:00+00:00,174.22081890986118
2025-01-24 16:00:00+00:00,174.22081890986118
2025-01-24 17:00:00+00:00,174.22081890986118
2025-01-24 18:00:00+00:00,174.22081890986118
2025-01-24 19:00:00+00:00,174.22081890986118
2025-01-24 20:00:00+00:00,174.22081890986118
2025-01-27 14:00:00+00:00,174.22081890986118
2025-01-27 15:00:00+00:00,174.22081890986118
2025-01-27 16:00:00+00:00,174.22081890986118
2025-01-27 17:00:00+00:00,174.22081890986118
2025-01-27 18:00:00+00:00,174.22081890986118
2025-01-27 19:00:00+00:00,174.22081890986118
2025-01-27 20:00:00+00:00,174.22081890986118
2025-01-28 14:00:00+00:00,174.22081890986118
2025-01-28 15:00:00+00:00,174.22081890986118
2025-01-28 16:00:00+00:00,174.22081890986118
2025-01-28 17:00:00+00:00,174.22081890986118
2025-01-28 18:00:00+00:00,174.22081890986118
2025-01-28 19:00:00+00:00,174.22081890986118
2025-01-29 14:00:00+00:00,174.22081890986118
2025-01-29 15:00:00+00:00,174.22081890986118
2025-01-29 16:00:00+00:00,174.22081890986118
2025-01-29 17:00:00+00:00,174.22081890986118
2025-01-29 18:00:00+00:00,174.22081890986118
2025-01-29 19:00:00+00:00,174.22081890986118
2025-01-29 20:00:00+00:00,174.22081890986118
2025-01-30 14:00:00+00:00,174.22081890986118
2025-01-30 15:00:00+00:00,174.22081890986118
2025-01-30 16:00:00+00:00,174.22081890986118
2025-01-30 18:00:00+00:00,174.22081890986118
2025-01-30 19:00:00+00:00,174.22081890986118
2025-01-30 20:00:00+00:00,174.22081890986118
2025-01-31 14:00:00+00:00,174.22081890986118
2025-01-31 15:00:00+00:00,174.22081890986118
2025-01-31 16:00:00+00:00,174.22081890986118
2025-01-31 17:00:00+00:00,174.22081890986118
2025-01-31 18:00:00+00:00,174.22081890986118
2025-01-31 19:00:00+00:00,174.22081890986118
2025-01-31 20:00:00+00:00,174.22081890986118
2025-02-03 14:00:00+00:00,174.22081890986118
2025-02-03 15:00:00+00:00,174.22081890986118
2025-02-03 16:00:00+00:00,174.22081890986118
2025-02-03 17:00:00+00:00,174.22081890986118
2025-02-03 18:00:00+00:00,174.22081890986118
2025-02-03 19:00:00+00:00,174.22081890986118
2025-02-03 20:00:00+00:00,174.22081890986118
2025-02-04 16:00:00+00:00,174.22081890986118
2025-02-04 18:00:00+00:00,174.22081890986118
2025-02-04 20:00:00+00:00,174.22081890986118
2025-02-05 14:00:00+00:00,174.22081890986118
2025-02-05 15:00:00+00:00,174.22081890986118
2025-02-05 16:00:00+00:00,174.22081890986118
2025-02-05 17:00:00+00:00,174.22081890986118
2025-02-05 19:00:00+00:00,174.22081890986118
2025-02-05 20:00:00+00:00,174.22081890986118
2025-02-06 14:00:00+00:00,174.22081890986118
2025-02-06 15:00:00+00:00,174.22081890986118
2025-02-06 17:00:00+00:00,174.22081890986118
2025-02-06 18:00:00+00:00,174.22081890986118
2025-02-06 19:00:00+00:00,174.22081890986118
2025-02-06 20:00:00+00:00,174.22081890986118
2025-02-07 14:00:00+00:00,174.22081890986118
2025-02-07 15:00:00+00:00,174.22081890986118
2025-02-07 16:00:00+00:00,174.22081890986118
2025-02-07 17:00:00+00:00,174.22081890986118
2025-02-07 19:00:00+00:00,174.22081890986118
2025-02-07 20:00:00+00:00,174.22081890986118
2025-02-10 14:00:00+00:00,174.22081890986118
2025-02-10 15:00:00+00:00,174.22081890986118
2025-02-10 19:00:00+00:00,174.22081890986118
2025-02-10 20:00:00+00:00,174.22081890986118
2025-02-11 14:00:00+00:00,174.22081890986118
2025-02-11 16:00:00+00:00,174.22081890986118
2025-02-11 17:00:00+00:00,174.22081890986118
2025-02-11 19:00:00+00:00,174.22081890986118
2025-02-11 20:00:00+00:00,174.22081890986118
2025-02-12 14:00:00+00:00,174.22081890986118
2025-02-12 15:00:00+00:00,174.22081890986118
2025-02-12 16:00:00+00:00,174.22081890986118
2025-02-12 17:00:00+00:00,174.22081890986118
2025-02-12 18:00:00+00:00,174.22081890986118
2025-02-12 19:00:00+00:00,174.22081890986118
2025-02-12 20:00:00+00:00,174.22081890986118
2025-02-13 14:00:00+00:00,174.22081890986118
2025-02-13 15:00:00+00:00,174.22081890986118
2025-02-13 16:00:00+00:00,174.22081890986118
2025-02-13 17:00:00+00:00,174.22081890986118
2025-02-13 18:00:00+00:00,174.22081890986118
2025-02-13 19:00:00+00:00,174.22081890986118
2025-02-13 20:00:00+00:00,174.22081890986118
2025-02-14 14:00:00+00:00,174.22081890986118
2025-02-14 15:00:00+00:00,174.22081890986118
2025-02-14 16:00:00+00:00,174.22081890986118
2025-02-14 17:00:00+00:00,174.22081890986118
2025-02-14 18:00:00+00:00,174.22081890986118
2025-02-14 19:00:00+00:00,174.22081890986118
2025-02-14 20:00:00+00:00,174.22081890986118
2025-02-18 14:00:00+00:00,174.22081890986118
2025-02-18 15:00:00+00:00,174.22081890986118
2025-02-18 16:00:00+00:00,174.22081890986118
2025-02-18 17:00:00+00:00,174.22081890986118
2025-02-18 18:00:00+00:00,174.22081890986118
2025-02-18 19:00:00+00:00,174.22081890986118
2025-02-18 20:00:00+00:00,174.22081890986118
2025-02-19 14:00:00+00:00,174.22081890986118
2025-02-19 15:00:00+00:00,174.22081890986118
2025-02-19 16:00:00+00:00,174.22081890986118
2025-02-19 17:00:00+00:00,174.22081890986118
2025-02-19 18:00:00+00:00,174.22081890986118
2025-02-19 19:00:00+00:00,174.22081890986118
2025-02-19 20:00:00+00:00,174.22081890986118
2025-02-20 14:00:00+00:00,174.22081890986118
2025-02-20 15:00:00+00:00,174.22081890986118
2025-02-20 16:00:00+00:00,174.22081890986118
2025-02-20 17:00:00+00:00,174.22081890986118
2025-02-20 18:00:00+00:00,174.22081890986118
2025-02-20 19:00:00+00:00,174.22081890986118
2025-02-21 14:00:00+00:00,174.22081890986118
2025-02-21 15:00:00+00:00,174.22081890986118
2025-02-21 16:00:00+00:00,174.22081890986118
2025-02-21 17:00:00+00:00,174.22081890986118
2025-02-21 18:00:00+00:00,174.22081890986118
2025-02-21 19:00:00+00:00,174.22081890986118
2025-02-21 20:00:00+00:00,174.22081890986118
2025-02-24 14:00:00+00:00,174.22081890986118
2025-02-24 15:00:00+00:00,174.22081890986118
2025-02-24 16:00:00+00:00,174.22081890986118
2025-02-24 17:00:00+00:00,174.22081890986118
2025-02-24 18:00:00+00:00,174.22081890986118
2025-02-24 19:00:00+00:00,174.22081890986118
2025-02-24 20:00:00+00:00,174.22081890986118
2025-02-25 14:00:00+00:00,174.22081890986118
2025-02-25 15:00:00+00:00,174.22081890986118
2025-02-25 16:00:00+00:00,174.22081890986118
2025-02-25 17:00:00+00:00,174.22081890986118
2025-02-25 18:00:00+00:00,174.22081890986118
2025-02-25 19:00:00+00:00,174.22081890986118
2025-02-25 20:00:00+00:00,174.22081890986118
2025-02-26 14:00:00+00:00,174.22081890986118
2025-02-26 15:00:00+00:00,174.22081890986118
2025-02-26 16:00:00+00:00,174.22081890986118
2025-02-26 17:00:00+00:00,174.22081890986118
2025-02-26 18:00:00+00:00,174.22081890986118
2025-02-26 19:00:00+00:00,174.22081890986118
2025-02-26 20:00:00+00:00,174.22081890986118
2025-02-27 14:00:00+00:00,174.22081890986118
2025-02-27 15:00:00+00:00,174.22081890986118
2025-02-27 16:00:00+00:00,174.22081890986118
2025-02-27 17:00:00+00:00,174.22081890986118
2025-02-27 18:00:00+00:00,174.22081890986118
2025-02-27 19:00:00+00:00,174.22081890986118
2025-02-27 20:00:00+00:00,174.22081890986118
2025-02-28 14:00:00+00:00,174.22081890986118
2025-02-28 15:00:00+00:00,174.22081890986118
2025-02-28 16:00:00+00:00,174.22081890986118
2025-02-28 17:00:00+00:00,174.22081890986118
2025-02-28 18:00:00+00:00,174.22081890986118
2025-02-28 19:00:00+00:00,174.22081890986118
2025-02-28 20:00:00+00:00,174.22081890986118
2025-03-03 14:00:00+00:00,174.22081890986118
2025-03-03 15:00:00+00:00,174.22081890986118
2025-03-03 16:00:00+00:00,174.22081890986118
2025-03-03 17:00:00+00:00,174.22081890986118
2025-03-03 18:00:00+00:00,174.22081890986118
2025-03-03 19:00:00+00:00,174.22081890986118
2025-03-03 20:00:00+00:00,174.22081890986118
2025-03-04 14:00:00+00:00,174.22081890986118
2025-03-04 15:00:00+00:00,174.22081890986118
2025-03-04 16:00:00+00:00,174.22081890986118
2025-03-04 17:00:00+00:00,174.22081890986118
2025-03-04 18:00:00+00:00,174.22081890986118
2025-03-04 19:00:00+00:00,174.22081890986118
2025-03-04 20:00:00+00:00,174.22081890986118
2025-03-05 14:00:00+00:00,174.22081890986118
2025-03-05 15:00:00+00:00,174.22081890986118
2025-03-05 16:00:00+00:00,174.22081890986118
2025-03-05 17:00:00+00:00,174.22081890986118
2025-03-05 18:00:00+00:00,174.22081890986118
2025-03-05 19:00:00+00:00,174.22081890986118
2025-03-05 20:00:00+00:00,174.22081890986118
2025-03-06 14:00:00+00:00,174.22081890986118
2025-03-06 15:00:00+00:00,174.22081890986118
2025-03-06 16:00:00+00:00,174.22081890986118
2025-03-06 17:00:00+00:00,174.22081890986118
2025-03-06 18:00:00+00:00,174.22081890986118
2025-03-06 19:00:00+00:00,174.22081890986118
2025-03-06 20:00:00+00:00,174.22081890986118
2025-03-07 14:00:00+00:00,174.22081890986118
2025-03-07 15:00:00+00:00,174.22081890986118
2025-03-07 17:00:00+00:00,174.22081890986118
2025-03-07 18:00:00+00:00,174.22081890986118
2025-03-07 19:00:00+00:00,174.22081890986118
2025-03-07 20:00:00+00:00,174.22081890986118
2025-03-10 13:00:00+00:00,174.22081890986118
2025-03-10 14:00:00+00:00,174.22081890986118
2025-03-10 15:00:00+00:00,174.22081890986118
2025-03-10 16:00:00+00:00,174.22081890986118
2025-03-10 17:00:00+00:00,174.22081890986118
2025-03-10 18:00:00+00:00,174.22081890986118
2025-03-10 19:00:00+00:00,174.22081890986118
2025-03-11 13:00:00+00:00,174.22081890986118
2025-03-11 14:00:00+00:00,174.22081890986118
2025-03-11 15:00:00+00:00,174.22081890986118
2025-03-11 16:00:00+00:00,174.22081890986118
2025-03-11 17:00:00+00:00,174.22081890986118
2025-03-11 18:00:00+00:00,174.22081890986118
2025-03-11 19:00:00+00:00,174.22081890986118
2025-03-12 13:00:00+00:00,174.22081890986118
2025-03-12 14:00:00+00:00,174.22081890986118
2025-03-12 15:00:00+00:00,174.22081890986118
2025-03-12 16:00:00+00:00,174.22081890986118
2025-03-12 17:00:00+00:00,174.22081890986118
2025-03-12 18:00:00+00:00,174.22081890986118
2025-03-12 19:00:00+00:00,174.22081890986118
2025-03-13 13:00:00+00:00,174.22081890986118
2025-03-13 14:00:00+00:00,174.22081890986118
2025-03-13 15:00:00+00:00,174.22081890986118
2025-03-13 17:00:00+00:00,174.22081890986118
2025-03-13 18:00:00+00:00,174.22081890986118
2025-03-13 19:00:00+00:00,174.22081890986118
2025-03-14 13:00:00+00:00,174.22081890986118
2025-03-14 14:00:00+00:00,174.22081890986118
2025-03-14 15:00:00+00:00,174.22081890986118
2025-03-14 16:00:00+00:00,174.22081890986118
2025-03-14 17:00:00+00:00,174.22081890986118
2025-03-14 18:00:00+00:00,174.22081890986118
2025-03-14 19:00:00+00:00,174.22081890986118
2025-03-17 13:00:00+00:00,174.22081890986118
2025-03-17 14:00:00+00:00,174.22081890986118
2025-03-17 15:00:00+00:00,174.22081890986118
2025-03-17 16:00:00+00:00,174.22081890986118
2025-03-17 17:00:00+00:00,174.22081890986118
2025-03-17 18:00:00+00:00,174.22081890986118
2025-03-17 19:00:00+00:00,174.22081890986118
2025-03-18 13:00:00+00:00,174.22081890986118
2025-03-18 14:00:00+00:00,174.22081890986118
2025-03-18 15:00:00+00:00,174.22081890986118
2025-03-18 16:00:00+00:00,174.22081890986118
2025-03-18 17:00:00+00:00,174.22081890986118
2025-03-18 18:00:00+00:00,174.22081890986118
2025-03-18 19:00:00+00:00,174.22081890986118
2025-03-19 13:00:00+00:00,174.22081890986118
2025-03-19 14:00:00+00:00,174.22081890986118
2025-03-19 15:00:00+00:00,174.22081890986118
2025-03-19 16:00:00+00:00,174.22081890986118
2025-03-19 17:00:00+00:00,174.22081890986118
2025-03-19 18:00:00+00:00,174.22081890986118
2025-03-19 19:00:00+00:00,174.22081890986118
2025-03-20 13:00:00+00:00,174.22081890986118
2025-03-20 14:00:00+00:00,174.22081890986118
2025-03-20 15:00:00+00:00,174.22081890986118
2025-03-20 16:00:00+00:00,174.22081890986118
2025-03-20 17:00:00+00:00,174.22081890986118
2025-03-20 18:00:00+00:00,174.22081890986118
2025-03-20 19:00:00+00:00,174.22081890986118
2025-03-21 13:00:00+00:00,174.22081890986118
2025-03-21 14:00:00+00:00,174.22081890986118
2025-03-21 15:00:00+00:00,174.22081890986118
2025-03-21 16:00:00+00:00,174.22081890986118
2025-03-21 17:00:00+00:00,174.22081890986118
2025-03-21 18:00:00+00:00,174.22081890986118
2025-03-21 19:00:00+00:00,174.22081890986118
2025-03-24 13:00:00+00:00,174.22081890986118
2025-03-24 14:00:00+00:00,174.22081890986118
2025-03-24 15:00:00+00:00,174.22081890986118
2025-03-24 16:00:00+00:00,174.22081890986118
2025-03-24 17:00:00+00:00,174.22081890986118
2025-03-24 18:00:00+00:00,174.22081890986118
2025-03-24 19:00:00+00:00,174.22081890986118
2025-03-25 13:00:00+00:00,174.22081890986118
2025-03-25 14:00:00+00:00,174.22081890986118
2025-03-25 15:00:00+00:00,174.22081890986118
2025-03-25 16:00:00+00:00,174.22081890986118
2025-03-25 17:00:00+00:00,174.22081890986118
2025-03-25 18:00:00+00:00,174.22081890986118
2025-03-25 19:00:00+00:00,174.22081890986118
2025-03-26 13:00:00+00:00,174.22081890986118
2025-03-26 14:00:00+00:00,174.22081890986118
2025-03-26 15:00:00+00:00,174.22081890986118
2025-03-26 16:00:00+00:00,174.22081890986118
2025-03-26 17:00:00+00:00,174.22081890986118
2025-03-26 18:00:00+00:00,174.22081890986118
2025-03-26 19:00:00+00:00,174.22081890986118
2025-03-27 13:00:00+00:00,174.22081890986118
2025-03-27 14:00:00+00:00,174.22081890986118
2025-03-27 15:00:00+00:00,174.22081890986118
2025-03-27 16:00:00+00:00,174.22081890986118
2025-03-27 17:00:00+00:00,174.22081890986118
2025-03-27 18:00:00+00:00,174.22081890986118
2025-03-27 19:00:00+00:00,174.22081890986118
2025-03-28 13:00:00+00:00,174.22081890986118
2025-03-28 14:00:00+00:00,174.22081890986118
2025-03-28 15:00:00+00:00,174.22081890986118
2025-03-28 16:00:00+00:00,174.22081890986118
2025-03-28 17:00:00+00:00,174.22081890986118
2025-03-28 18:00:00+00:00,174.22081890986118
2025-03-28 19:00:00+00:00,174.22081890986118
2025-03-31 13:00:00+00:00,174.22081890986118
2025-03-31 14:00:00+00:00,174.22081890986118
2025-03-31 15:00:00+00:00,174.22081890986118
2025-03-31 16:00:00+00:00,174.22081890986118
2025-03-31 17:00:00+00:00,174.22081890986118
2025-03-31 18:00:00+00:00,174.22081890986118
2025-03-31 19:00:00+00:00,174.22081890986118
2025-04-01 13:00:00+00:00,174.22081890986118
2025-04-01 14:00:00+00:00,174.22081890986118
2025-04-01 15:00:00+00:00,174.22081890986118
2025-04-01 16:00:00+00:00,174.22081890986118
2025-04-01 17:00:00+00:00,174.22081890986118
2025-04-01 18:00:00+00:00,174.22081890986118
2025-04-01 19:00:00+00:00,174.22081890986118
2025-04-02 13:00:00+00:00,174.22081890986118
2025-04-02 14:00:00+00:00,174.22081890986118
2025-04-02 16:00:00+00:00,174.22081890986118
2025-04-02 17:00:00+00:00,174.22081890986118
2025-04-02 18:00:00+00:00,174.22081890986118
2025-04-02 19:00:00+00:00,174.22081890986118
2025-04-03 13:00:00+00:00,174.22081890986118
2025-04-03 14:00:00+00:00,174.22081890986118
2025-04-03 15:00:00+00:00,174.22081890986118
2025-04-03 16:00:00+00:00,174.22081890986118
2025-04-03 17:00:00+00:00,174.22081890986118
2025-04-03 18:00:00+00:00,174.22081890986118
2025-04-03 19:00:00+00:00,174.22081890986118
2025-04-04 13:00:00+00:00,324.2322677831911
2025-04-04 14:00:00+00:00,230.67312779728496
2025-04-04 15:00:00+00:00,152.83141421592416
2025-04-04 16:00:00+00:00,117.61737352358911
2025-04-04 17:00:00+00:00,92.42360848201079
2025-04-04 18:00:00+00:00,55.809961093285594
2025-04-04 19:00:00+00:00,47.874367529033755
2025-04-07 13:00:00+00:00,-55.34848521101994
2025-04-07 14:00:00+00:00,-95.88817202684177
2025-04-07 15:00:00+00:00,-35.52354217340444
2025-04-07 16:00:00+00:00,-36.890668571506396
2025-04-07 17:00:00+00:00,-25.40921706265253
2025-04-07 18:00:00+00:00,-79.78922422550826
2025-04-07 19:00:00+00:00,-54.081350285468574
2025-04-08 13:00:00+00:00,28.697733376813133
2025-04-08 14:00:00+00:00,12.387106112319287
2025-04-08 15:00:00+00:00,21.586476215949247
2025-04-08 16:00:00+00:00,27.30195412039454
2025-04-08 17:00:00+00:00,59.91080079152212
2025-04-08 18:00:00+00:00,75.7192695419846
2025-04-08 19:00:00+00:00,32.155615392453505
2025-04-09 13:00:00+00:00,-69.5038265386134
2025-04-09 14:00:00+00:00,-83.27443886074357
2025-04-09 15:00:00+00:00,-111.0677470360156
2025-04-09 16:00:00+00:00,-33.09496415537784
2025-04-09 17:00:00+00:00,-155.03251506573574
2025-04-09 18:00:00+00:00,-108.80346527097386
2025-04-09 19:00:00+00:00,-109.89648558688695
2025-04-10 13:00:00+00:00,-45.19612816085916
2025-04-10 14:00:00+00:00,-8.752439872702602
2025-04-10 15:00:00+00:00,-47.60583564445938
2025-04-10 16:00:00+00:00,-61.724644924618076
2025-04-10 17:00:00+00:00,-40.27446096004492
2025-04-10 18:00:00+00:00,-59.2152008062556
2025-04-10 19:00:00+00:00,-62.92951503480543
2025-04-11 13:00:00+00:00,-79.77460857379
2025-04-11 14:00:00+00:00,-72.07292339329958
2025-04-11 15:00:00+00:00,-39.657354367260965
2025-04-11 16:00:00+00:00,-62.63670022185346
2025-04-11 17:00:00+00:00,-47.57178551051163
2025-04-11 18:00:00+00:00,-56.408650959468424
2025-04-11 19:00:00+00:00,-75.68476690866311
2025-04-14 13:00:00+00:00,-51.89318940059864
2025-04-14 14:00:00+00:00,-41.950861942429086
2025-04-14 15:00:00+00:00,-24.51075969644919
2025-04-14 16:00:00+00:00,-39.87269092988956
2025-04-14 17:00:00+00:00,-7.167884936529404
2025-04-14 18:00:00+00:00,-14.070731369843418
2025-04-14 19:00:00+00:00,-20.368180702061096
2025-04-15 13:00:00+00:00,50.77824345383942
2025-04-15 14:00:00+00:00,40.78386708009331
2025-04-15 15:00:00+00:00,48.08316662043412
2025-04-15 16:00:00+00:00,28.967602815753622
2025-04-15 17:00:00+00:00,68.0741122517576
2025-04-15 18:00:00+00:00,63.974392468900746
2025-04-15 19:00:00+00:00,40.65924572026216
2025-04-16 13:00:00+00:00,53.07481254255486
2025-04-16 14:00:00+00:00,17.37578575233689
2025-04-16 15:00:00+00:00,40.26894192696421
2025-04-16 17:00:00+00:00,44.31712728999488
2025-04-16 18:00:00+00:00,13.29313361390454
2025-04-16 19:00:00+00:00,28.56186678247204
2025-04-17 13:00:00+00:00,34.48040465589496
2025-04-17 14:00:00+00:00,29.68297710756158
2025-04-17 15:00:00+00:00,64.6076075455209
2025-04-17 16:00:00+00:00,55.07576909595707
2025-04-17 17:00:00+00:00,48.642661390551986
2025-04-17 18:00:00+00:00,41.533398144979714
2025-04-17 19:00:00+00:00,35.44550749107091
2025-04-21 13:00:00+00:00,-30.5196343384753
2025-04-21 14:00:00+00:00,-72.8137067894219
2025-04-21 15:00:00+00:00,-89.40780252255531
2025-04-21 16:00:00+00:00,-139.30040210295402
2025-04-21 17:00:00+00:00,-139.7471025223059
2025-04-21 18:00:00+00:00,-138.520770179158
2025-04-21 19:00:00+00:00,-118.08902615323483
2025-04-22 13:00:00+00:00,-82.45680773431621
2025-04-22 14:00:00+00:00,-91.81571555776587
2025-04-22 15:00:00+00:00,-99.65361027805179
2025-04-22 16:00:00+00:00,-113.12237159531529
2025-04-22 17:00:00+00:00,-101.29357459452149
2025-04-22 18:00:00+00:00,-83.92028181850552
2025-04-22 19:00:00+00:00,-78.05928296405631
2025-04-23 13:00:00+00:00,-103.64653846839367
2025-04-23 14:00:00+00:00,-100.50340185858859
2025-04-23 15:00:00+00:00,-83.11752337890971
2025-04-23 16:00:00+00:00,-75.28167464881511
2025-04-23 17:00:00+00:00,-80.87849263790176
2025-04-23 18:00:00+00:00,-54.817123671152515
2025-04-23 19:00:00+00:00,-48.78205289633034
2025-04-24 13:00:00+00:00,-75.19952487432879
2025-04-24 14:00:00+00:00,-95.58115600630192
2025-04-24 16:00:00+00:00,-89.20354698709298
2025-04-24 17:00:00+00:00,-102.32760658584809
2025-04-24 18:00:00+00:00,-97.30939092702994
2025-04-24 19:00:00+00:00,-92.86130168726213
2025-04-25 13:00:00+00:00,-111.74197916048138
2025-04-25 14:00:00+00:00,-80.51943753280656
2025-04-25 15:00:00+00:00,-68.00454286246963
2025-04-25 16:00:00+00:00,-77.38436830919832
2025-04-25 17:00:00+00:00,-83.24098431271341
2025-04-25 18:00:00+00:00,-77.92660365416553
2025-04-25 19:00:00+00:00,-73.01518728724096
2025-04-28 13:00:00+00:00,-82.20240546946157
2025-04-28 14:00:00+00:00,-73.22058191963944
2025-04-28 15:00:00+00:00,-82.65914085316524
2025-04-28 16:00:00+00:00,-83.50646980205806
2025-04-28 17:00:00+00:00,-83.3629959409068
2025-04-28 18:00:00+00:00,-72.92899846206589
2025-04-28 19:00:00+00:00,-65.44346667634088
2025-04-29 13:00:00+00:00,-7.930645799028021
2025-04-29 14:00:00+00:00,19.925308898958335
2025-04-29 15:00:00+00:00,38.283589469272016
2025-04-29 16:00:00+00:00,61.51074474660617
2025-04-29 17:00:00+00:00,98.48792091732105
2025-04-29 19:00:00+00:00,102.94361632523645
2025-04-30 13:00:00+00:00,-103.68074895091435
2025-04-30 14:00:00+00:00,-19.583276174871543
2025-04-30 15:00:00+00:00,-34.97338825428823
2025-04-30 16:00:00+00:00,-32.56853453530236
2025-04-30 17:00:00+00:00,-16.42900022745725
2025-04-30 18:00:00+00:00,7.926743574889095
2025-05-01 13:00:00+00:00,1.7432659204620577
2025-05-01 14:00:00+00:00,1.7432659204620577
2025-05-01 15:00:00+00:00,1.7432659204620577
2025-05-01 16:00:00+00:00,1.7432659204620577
2025-05-01 17:00:00+00:00,1.7432659204620577
2025-05-01 18:00:00+00:00,1.7432659204620577
2025-05-01 19:00:00+00:00,1.7432659204620577
2025-05-02 13:00:00+00:00,1.7432659204620577
2025-05-02 14:00:00+00:00,1.7432659204620577
2025-05-02 15:00:00+00:00,1.7432659204620577
2025-05-02 16:00:00+00:00,1.7432659204620577
2025-05-02 17:00:00+00:00,1.7432659204620577
2025-05-02 18:00:00+00:00,1.7432659204620577
2025-05-02 19:00:00+00:00,1.7432659204620577
2025-05-05 13:00:00+00:00,1.7432659204620577
2025-05-05 14:00:00+00:00,1.7432659204620577
2025-05-05 15:00:00+00:00,1.7432659204620577
2025-05-05 16:00:00+00:00,1.7432659204620577
2025-05-05 17:00:00+00:00,1.7432659204620577
2025-05-05 18:00:00+00:00,1.7432659204620577
2025-05-05 19:00:00+00:00,1.7432659204620577
2025-05-06 13:00:00+00:00,1.7432659204620577
2025-05-06 14:00:00+00:00,1.7432659204620577
2025-05-06 15:00:00+00:00,1.7432659204620577
2025-05-06 16:00:00+00:00,1.7432659204620577
2025-05-06 17:00:00+00:00,1.7432659204620577
2025-05-06 18:00:00+00:00,1.7432659204620577
2025-05-06 19:00:00+00:00,1.7432659204620577
2025-05-07 13:00:00+00:00,1.7432659204620577
2025-05-07 15:00:00+00:00,1.7432659204620577
2025-05-07 17:00:00+00:00,1.7432659204620577
2025-05-07 18:00:00+00:00,1.7432659204620577
2025-05-07 19:00:00+00:00,1.7432659204620577
2025-05-08 13:00:00+00:00,1.7432659204620577
2025-05-08 14:00:00+00:00,1.7432659204620577
2025-05-08 15:00:00+00:00,1.7432659204620577
2025-05-08 16:00:00+00:00,1.7432659204620577
2025-05-08 17:00:00+00:00,1.7432659204620577
2025-05-08 18:00:00+00:00,1.7432659204620577
2025-05-08 19:00:00+00:00,1.7432659204620577
2025-05-09 13:00:00+00:00,1.7432659204620577
2025-05-09 14:00:00+00:00,1.7432659204620577
2025-05-09 15:00:00+00:00,1.7432659204620577
2025-05-09 16:00:00+00:00,1.7432659204620577
2025-05-09 17:00:00+00:00,1.7432659204620577
2025-05-09 18:00:00+00:00,1.7432659204620577
2025-05-09 19:00:00+00:00,1.7432659204620577
2025-05-12 13:00:00+00:00,1.7432659204620577
2025-05-12 14:00:00+00:00,1.7432659204620577
2025-05-12 15:00:00+00:00,1.7432659204620577
2025-05-12 16:00:00+00:00,1.7432659204620577
2025-05-12 17:00:00+00:00,1.7432659204620577
2025-05-12 18:00:00+00:00,1.7432659204620577
2025-05-12 19:00:00+00:00,1.7432659204620577
2025-05-13 13:00:00+00:00,1.7432659204620577
2025-05-13 14:00:00+00:00,1.7432659204620577
2025-05-13 15:00:00+00:00,1.7432659204620577
2025-05-13 17:00:00+00:00,1.7432659204620577
2025-05-13 18:00:00+00:00,1.7432659204620577
2025-05-13 19:00:00+00:00,1.7432659204620577
2025-05-14 13:00:00+00:00,1.7432659204620577
2025-05-14 14:00:00+00:00,1.7432659204620577
2025-05-14 15:00:00+00:00,1.7432659204620577
2025-05-14 16:00:00+00:00,1.7432659204620577
2025-05-14 17:00:00+00:00,1.7432659204620577
2025-05-14 18:00:00+00:00,1.7432659204620577
2025-05-14 19:00:00+00:00,1.7432659204620577
2025-05-15 13:00:00+00:00,1.7432659204620577
2025-05-15 14:00:00+00:00,1.7432659204620577
2025-05-15 15:00:00+00:00,1.7432659204620577
2025-05-15 16:00:00+00:00,1.7432659204620577
2025-05-15 17:00:00+00:00,1.7432659204620577
2025-05-15 18:00:00+00:00,1.7432659204620577
2025-05-15 19:00:00+00:00,1.7432659204620577
2025-05-16 13:00:00+00:00,1.7432659204620577
2025-05-16 14:00:00+00:00,1.7432659204620577
2025-05-16 15:00:00+00:00,1.7432659204620577
2025-05-16 16:00:00+00:00,1.7432659204620577
2025-05-16 17:00:00+00:00,1.7432659204620577
2025-05-16 18:00:00+00:00,1.7432659204620577
2025-05-16 19:00:00+00:00,1.7432659204620577
2025-05-19 13:00:00+00:00,1.7432659204620577
2025-05-19 14:00:00+00:00,1.7432659204620577
2025-05-19 15:00:00+00:00,1.7432659204620577
2025-05-19 16:00:00+00:00,1.7432659204620577
2025-05-19 17:00:00+00:00,1.7432659204620577
2025-05-19 18:00:00+00:00,1.7432659204620577
2025-05-19 19:00:00+00:00,1.7432659204620577
2025-05-20 13:00:00+00:00,1.7432659204620577
2025-05-20 14:00:00+00:00,1.7432659204620577
2025-05-20 15:00:00+00:00,1.7432659204620577
2025-05-20 16:00:00+00:00,1.7432659204620577
2025-05-20 17:00:00+00:00,1.7432659204620577
2025-05-20 18:00:00+00:00,1.7432659204620577
2025-05-20 19:00:00+00:00,1.7432659204620577
2025-05-21 13:00:00+00:00,1.7432659204620577
2025-05-21 14:00:00+00:00,1.7432659204620577
2025-05-21 15:00:00+00:00,1.7432659204620577
2025-05-21 16:00:00+00:00,1.7432659204620577
2025-05-21 17:00:00+00:00,1.7432659204620577
2025-05-21 18:00:00+00:00,1.7432659204620577
2025-05-21 19:00:00+00:00,1.7432659204620577
2025-05-22 13:00:00+00:00,1.7432659204620577
2025-05-22 14:00:00+00:00,1.7432659204620577
2025-05-22 16:00:00+00:00,1.7432659204620577
2025-05-22 17:00:00+00:00,1.7432659204620577
2025-05-22 18:00:00+00:00,1.7432659204620577
2025-05-22 19:00:00+00:00,1.7432659204620577
2025-05-23 13:00:00+00:00,1.7432659204620577
2025-05-23 14:00:00+00:00,1.7432659204620577
2025-05-23 15:00:00+00:00,1.7432659204620577
2025-05-23 16:00:00+00:00,1.7432659204620577
2025-05-23 17:00:00+00:00,1.7432659204620577
2025-05-23 18:00:00+00:00,1.7432659204620577
2025-05-23 19:00:00+00:00,1.7432659204620577
2025-05-27 13:00:00+00:00,1.7432659204620577
2025-05-27 14:00:00+00:00,1.7432659204620577
2025-05-27 15:00:00+00:00,1.7432659204620577
2025-05-27 16:00:00+00:00,1.7432659204620577
2025-05-27 17:00:00+00:00,1.7432659204620577
2025-05-27 18:00:00+00:00,1.7432659204620577
2025-05-27 19:00:00+00:00,1.7432659204620577
2025-05-28 13:00:00+00:00,1.7432659204620577
2025-05-28 14:00:00+00:00,1.7432659204620577
2025-05-28 15:00:00+00:00,1.7432659204620577
2025-05-28 16:00:00+00:00,1.7432659204620577
2025-05-28 17:00:00+00:00,1.7432659204620577
2025-05-28 18:00:00+00:00,1.7432659204620577
2025-05-28 19:00:00+00:00,1.7432659204620577
2025-05-29 13:00:00+00:00,1.7432659204620577
2025-05-29 14:00:00+00:00,1.7432659204620577
2025-05-29 15:00:00+00:00,1.7432659204620577
2025-05-29 16:00:00+00:00,1.7432659204620577
2025-05-29 17:00:00+00:00,1.7432659204620577
2025-05-29 18:00:00+00:00,1.7432659204620577
2025-05-29 19:00:00+00:00,1.7432659204620577
2025-05-30 13:00:00+00:00,1.7432659204620577
2025-05-30 14:00:00+00:00,1.7432659204620577
2025-05-30 15:00:00+00:00,1.7432659204620577
2025-05-30 16:00:00+00:00,1.7432659204620577
2025-05-30 17:00:00+00:00,1.7432659204620577
2025-05-30 18:00:00+00:00,1.7432659204620577
2025-05-30 19:00:00+00:00,1.7432659204620577
2025-06-02 13:00:00+00:00,1.7432659204620577
2025-06-02 14:00:00+00:00,1.7432659204620577
2025-06-02 15:00:00+00:00,1.7432659204620577
2025-06-02 16:00:00+00:00,1.7432659204620577
2025-06-02 17:00:00+00:00,1.7432659204620577
2025-06-02 18:00:00+00:00,1.7432659204620577
2025-06-02 19:00:00+00:00,1.7432659204620577
2025-06-03 13:00:00+00:00,1.7432659204620577
2025-06-03 14:00:00+00:00,1.7432659204620577
2025-06-03 15:00:00+00:00,1.7432659204620577
2025-06-03 16:00:00+00:00,1.7432659204620577
2025-06-03 17:00:00+00:00,1.7432659204620577
2025-06-03 18:00:00+00:00,1.7432659204620577
2025-06-03 19:00:00+00:00,1.7432659204620577
2025-06-04 13:00:00+00:00,1.7432659204620577
2025-06-04 14:00:00+00:00,1.7432659204620577
2025-06-04 15:00:00+00:00,1.7432659204620577
2025-06-04 16:00:00+00:00,1.7432659204620577
2025-06-04 17:00:00+00:00,1.7432659204620577
2025-06-04 18:00:00+00:00,1.7432659204620577
2025-06-04 19:00:00+00:00,1.7432659204620577
2025-06-05 13:00:00+00:00,1.7432659204620577
2025-06-05 14:00:00+00:00,1.7432659204620577
2025-06-05 15:00:00+00:00,1.7432659204620577
2025-06-05 16:00:00+00:00,1.7432659204620577
2025-06-05 17:00:00+00:00,1.7432659204620577
2025-06-05 18:00:00+00:00,1.7432659204620577
2025-06-05 19:00:00+00:00,1.7432659204620577
2025-06-06 13:00:00+00:00,1.7432659204620577
2025-06-06 14:00:00+00:00,1.7432659204620577
2025-06-06 15:00:00+00:00,1.7432659204620577
2025-06-06 16:00:00+00:00,1.7432659204620577
2025-06-06 17:00:00+00:00,1.7432659204620577
2025-06-06 18:00:00+00:00,1.7432659204620577
2025-06-06 19:00:00+00:00,1.7432659204620577
2025-06-09 13:00:00+00:00,1.7432659204620577
2025-06-09 14:00:00+00:00,1.7432659204620577
2025-06-09 15:00:00+00:00,1.7432659204620577
2025-06-09 16:00:00+00:00,1.7432659204620577
2025-06-09 17:00:00+00:00,1.7432659204620577
2025-06-09 18:00:00+00:00,1.7432659204620577
2025-06-09 19:00:00+00:00,1.7432659204620577
2025-06-10 13:00:00+00:00,1.7432659204620577
2025-06-10 14:00:00+00:00,1.7432659204620577
2025-06-10 15:00:00+00:00,1.7432659204620577
2025-06-10 16:00:00+00:00,1.7432659204620577
2025-06-10 17:00:00+00:00,1.7432659204620577
2025-06-10 18:00:00+00:00,1.7432659204620577
2025-06-10 19:00:00+00:00,1.7432659204620577
2025-06-11 13:00:00+00:00,1.7432659204620577
2025-06-11 14:00:00+00:00,1.7432659204620577
2025-06-11 15:00:00+00:00,1.7432659204620577
2025-06-11 16:00:00+00:00,1.7432659204620577
2025-06-11 18:00:00+00:00,1.7432659204620577
2025-06-11 19:00:00+00:00,1.7432659204620577
2025-06-12 13:00:00+00:00,1.7432659204620577
2025-06-12 14:00:00+00:00,1.7432659204620577
2025-06-12 15:00:00+00:00,1.7432659204620577
2025-06-12 17:00:00+00:00,1.7432659204620577
2025-06-12 18:00:00+00:00,1.7432659204620577
2025-06-12 19:00:00+00:00,1.7432659204620577
2025-06-13 13:00:00+00:00,1.7432659204620577
2025-06-13 14:00:00+00:00,1.7432659204620577
2025-06-13 15:00:00+00:00,1.7432659204620577
2025-06-13 16:00:00+00:00,1.7432659204620577
2025-06-13 17:00:00+00:00,1.7432659204620577
2025-06-13 18:00:00+00:00,1.7432659204620577
2025-06-13 19:00:00+00:00,1.7432659204620577
2025-06-16 13:00:00+00:00,1.7432659204620577
2025-06-16 14:00:00+00:00,1.7432659204620577
2025-06-16 15:00:00+00:00,1.7432659204620577
2025-06-16 16:00:00+00:00,1.7432659204620577
2025-06-16 17:00:00+00:00,1.7432659204620577
2025-06-16 18:00:00+00:00,1.7432659204620577
2025-06-16 19:00:00+00:00,1.7432659204620577
2025-06-17 13:00:00+00:00,1.7432659204620577
2025-06-17 14:00:00+00:00,1.7432659204620577
2025-06-17 15:00:00+00:00,1.7432659204620577
2025-06-17 16:00:00+00:00,1.7432659204620577
2025-06-17 17:00:00+00:00,1.7432659204620577
2025-06-17 18:00:00+00:00,1.7432659204620577
2025-06-17 19:00:00+00:00,1.7432659204620577
2025-06-18 13:00:00+00:00,1.7432659204620577
2025-06-18 15:00:00+00:00,1.7432659204620577
2025-06-18 17:00:00+00:00,1.7432659204620577
2025-06-18 18:00:00+00:00,1.7432659204620577
2025-06-18 19:00:00+00:00,1.7432659204620577
2025-06-20 13:00:00+00:00,1.7432659204620577
2025-06-20 14:00:00+00:00,1.7432659204620577
2025-06-20 15:00:00+00:00,1.7432659204620577
2025-06-20 16:00:00+00:00,1.7432659204620577
2025-06-20 18:00:00+00:00,1.7432659204620577
2025-06-20 19:00:00+00:00,1.7432659204620577
2025-06-23 13:00:00+00:00,1.7432659204620577
2025-06-23 14:00:00+00:00,1.7432659204620577
2025-06-23 16:00:00+00:00,1.7432659204620577
2025-06-23 17:00:00+00:00,1.7432659204620577
2025-06-23 19:00:00+00:00,1.7432659204620577
2025-06-24 13:00:00+00:00,1.7432659204620577
2025-06-24 14:00:00+00:00,1.7432659204620577
2025-06-25 13:00:00+00:00,1.7432659204620577
2025-06-25 14:00:00+00:00,1.7432659204620577
2025-06-25 15:00:00+00:00,1.7432659204620577
2025-06-25 16:00:00+00:00,1.7432659204620577
2025-06-25 17:00:00+00:00,1.7432659204620577
2025-06-25 19:00:00+00:00,1.7432659204620577
2025-06-26 13:00:00+00:00,1.7432659204620577
2025-06-26 14:00:00+00:00,1.7432659204620577
2025-06-26 19:00:00+00:00,1.7432659204620577
2025-06-27 13:00:00+00:00,1.7432659204620577
2025-06-27 14:00:00+00:00,1.7432659204620577
2025-06-27 15:00:00+00:00,1.7432659204620577
2025-06-27 16:00:00+00:00,1.7432659204620577
2025-06-27 17:00:00+00:00,1.7432659204620577
2025-06-27 18:00:00+00:00,1.7432659204620577
2025-06-27 19:00:00+00:00,1.7432659204620577
2025-06-30 13:00:00+00:00,1.7432659204620577
2025-06-30 14:00:00+00:00,1.7432659204620577
2025-06-30 15:00:00+00:00,1.7432659204620577
2025-06-30 16:00:00+00:00,1.7432659204620577
2025-06-30 17:00:00+00:00,1.7432659204620577
2025-06-30 19:00:00+00:00,1.7432659204620577
2025-07-01 13:00:00+00:00,1.7432659204620577
2025-07-01 14:00:00+00:00,1.7432659204620577
2025-07-01 15:00:00+00:00,1.7432659204620577
2025-07-01 16:00:00+00:00,1.7432659204620577
2025-07-01 17:00:00+00:00,1.7432659204620577
2025-07-01 18:00:00+00:00,1.7432659204620577
2025-07-01 19:00:00+00:00,1.7432659204620577
2025-07-02 13:00:00+00:00,1.7432659204620577
2025-07-02 14:00:00+00:00,1.7432659204620577
2025-07-02 15:00:00+00:00,1.7432659204620577
2025-07-02 16:00:00+00:00,1.7432659204620577
2025-07-02 17:00:00+00:00,1.7432659204620577
2025-07-02 18:00:00+00:00,1.7432659204620577
2025-07-02 19:00:00+00:00,1.7432659204620577
2025-07-03 13:00:00+00:00,1.7432659204620577
2025-07-03 14:00:00+00:00,1.7432659204620577
2025-07-03 15:00:00+00:00,1.7432659204620577
2025-07-07 13:00:00+00:00,1.7432659204620577
2025-07-07 14:00:00+00:00,1.7432659204620577
2025-07-07 15:00:00+00:00,1.7432659204620577
2025-07-07 16:00:00+00:00,1.7432659204620577
2025-07-07 17:00:00+00:00,1.7432659204620577
2025-07-07 18:00:00+00:00,1.7432659204620577
2025-07-07 19:00:00+00:00,1.7432659204620577
2025-07-08 13:00:00+00:00,1.7432659204620577
2025-07-08 14:00:00+00:00,1.7432659204620577
2025-07-08 15:00:00+00:00,1.7432659204620577
2025-07-08 16:00:00+00:00,1.7432659204620577
2025-07-08 17:00:00+00:00,1.7432659204620577
2025-07-08 18:00:00+00:00,1.7432659204620577
2025-07-08 19:00:00+00:00,1.7432659204620577
2025-07-09 13:00:00+00:00,1.7432659204620577
2025-07-09 14:00:00+00:00,1.7432659204620577
2025-07-09 15:00:00+00:00,1.7432659204620577
2025-07-09 16:00:00+00:00,1.7432659204620577
2025-07-09 17:00:00+00:00,1.7432659204620577
2025-07-09 18:00:00+00:00,1.7432659204620577
2025-07-09 19:00:00+00:00,1.7432659204620577
2025-07-10 13:00:00+00:00,1.7432659204620577
2025-07-10 14:00:00+00:00,1.7432659204620577
2025-07-10 15:00:00+00:00,1.7432659204620577
2025-07-10 16:00:00+00:00,1.7432659204620577
2025-07-10 17:00:00+00:00,1.7432659204620577
2025-07-10 18:00:00+00:00,1.7432659204620577
2025-07-10 19:00:00+00:00,1.7432659204620577
2025-07-11 13:00:00+00:00,1.7432659204620577
2025-07-11 14:00:00+00:00,1.7432659204620577
2025-07-11 15:00:00+00:00,1.7432659204620577
2025-07-11 16:00:00+00:00,1.7432659204620577
2025-07-11 17:00:00+00:00,1.7432659204620577
2025-07-11 18:00:00+00:00,1.7432659204620577
2025-07-11 19:00:00+00:00,1.7432659204620577
2025-07-14 13:00:00+00:00,1.7432659204620577
2025-07-14 14:00:00+00:00,1.7432659204620577
2025-07-14 15:00:00+00:00,1.7432659204620577
2025-07-14 16:00:00+00:00,1.7432659204620577
2025-07-14 17:00:00+00:00,1.7432659204620577
2025-07-14 19:00:00+00:00,1.7432659204620577
2025-07-15 13:00:00+00:00,1.7432659204620577
2025-07-15 14:00:00+00:00,1.7432659204620577
2025-07-15 15:00:00+00:00,1.7432659204620577
2025-07-15 16:00:00+00:00,1.7432659204620577
2025-07-15 17:00:00+00:00,1.7432659204620577
2025-07-15 19:00:00+00:00,1.7432659204620577
2025-07-16 13:00:00+00:00,1.7432659204620577
2025-07-16 14:00:00+00:00,1.7432659204620577
2025-07-16 15:00:00+00:00,1.7432659204620577
2025-07-16 16:00:00+00:00,1.7432659204620577
2025-07-16 17:00:00+00:00,1.7432659204620577
2025-07-16 19:00:00+00:00,1.7432659204620577
2025-07-17 13:00:00+00:00,1.7432659204620577
2025-07-17 15:00:00+00:00,1.7432659204620577
2025-07-17 16:00:00+00:00,1.7432659204620577
2025-07-17 17:00:00+00:00,1.7432659204620577
2025-07-18 13:00:00+00:00,1.7432659204620577
2025-07-18 17:00:00+00:00,1.7432659204620577
2025-07-18 19:00:00+00:00,1.7432659204620577
2025-07-21 13:00:00+00:00,1.7432659204620577
2025-07-21 14:00:00+00:00,1.7432659204620577
2025-07-21 16:00:00+00:00,1.7432659204620577
2025-07-21 19:00:00+00:00,1.7432659204620577
2025-07-22 13:00:00+00:00,1.7432659204620577
2025-07-22 14:00:00+00:00,1.7432659204620577
2025-07-22 15:00:00+00:00,1.7432659204620577
2025-07-22 18:00:00+00:00,1.7432659204620577
2025-07-22 19:00:00+00:00,1.7432659204620577
2025-07-23 13:00:00+00:00,1.7432659204620577
2025-07-23 14:00:00+00:00,1.7432659204620577
2025-07-23 15:00:00+00:00,1.7432659204620577
2025-07-23 16:00:00+00:00,1.7432659204620577
2025-07-23 17:00:00+00:00,1.7432659204620577
2025-07-23 18:00:00+00:00,1.7432659204620577
2025-07-23 19:00:00+00:00,1.7432659204620577
2025-07-24 13:00:00+00:00,1.7432659204620577
2025-07-24 14:00:00+00:00,1.7432659204620577
2025-07-24 15:00:00+00:00,1.7432659204620577
2025-07-24 16:00:00+00:00,1.7432659204620577
2025-07-24 19:00:00+00:00,1.7432659204620577
2025-07-25 13:00:00+00:00,1.7432659204620577
2025-07-25 14:00:00+00:00,1.7432659204620577
2025-07-25 15:00:00+00:00,1.7432659204620577
2025-07-25 16:00:00+00:00,1.7432659204620577
2025-07-25 17:00:00+00:00,1.7432659204620577
2025-07-25 18:00:00+00:00,1.7432659204620577
2025-07-28 13:00:00+00:00,1.7432659204620577
2025-07-28 14:00:00+00:00,1.7432659204620577
2025-07-28 15:00:00+00:00,1.7432659204620577
2025-07-28 16:00:00+00:00,1.7432659204620577
2025-07-28 17:00:00+00:00,1.7432659204620577
2025-07-28 18:00:00+00:00,1.7432659204620577
2025-07-28 19:00:00+00:00,1.7432659204620577
2025-07-29 13:00:00+00:00,1.7432659204620577
2025-07-29 14:00:00+00:00,1.7432659204620577
2025-07-29 15:00:00+00:00,1.7432659204620577
2025-07-29 16:00:00+00:00,1.7432659204620577
2025-07-29 17:00:00+00:00,1.7432659204620577
2025-07-29 18:00:00+00:00,1.7432659204620577
2025-07-29 19:00:00+00:00,1.7432659204620577
2025-07-30 13:00:00+00:00,1.7432659204620577
2025-07-30 14:00:00+00:00,1.7432659204620577
2025-07-30 15:00:00+00:00,1.7432659204620577
2025-07-30 16:00:00+00:00,1.7432659204620577
2025-07-30 17:00:00+00:00,1.7432659204620577
2025-07-30 18:00:00+00:00,1.7432659204620577
2025-07-30 19:00:00+00:00,1.7432659204620577
2025-07-31 13:00:00+00:00,1.7432659204620577
2025-07-31 16:00:00+00:00,1.7432659204620577
2025-07-31 17:00:00+00:00,1.7432659204620577
2025-07-31 18:00:00+00:00,1.7432659204620577
2025-07-31 19:00:00+00:00,1.7432659204620577
2025-08-01 13:00:00+00:00,1.7432659204620577
2025-08-01 14:00:00+00:00,1.7432659204620577
2025-08-01 15:00:00+00:00,1.7432659204620577
2025-08-01 16:00:00+00:00,1.7432659204620577
2025-08-01 17:00:00+00:00,1.7432659204620577
2025-08-04 13:00:00+00:00,1.7432659204620577
2025-08-04 14:00:00+00:00,1.7432659204620577
2025-08-04 15:00:00+00:00,1.7432659204620577
2025-08-04 17:00:00+00:00,1.7432659204620577
2025-08-04 18:00:00+00:00,1.7432659204620577
2025-08-04 19:00:00+00:00,1.7432659204620577
2025-08-05 13:00:00+00:00,1.7432659204620577
2025-08-05 14:00:00+00:00,1.7432659204620577
2025-08-05 16:00:00+00:00,1.7432659204620577
2025-08-05 17:00:00+00:00,1.7432659204620577
2025-08-05 19:00:00+00:00,1.7432659204620577
2025-08-06 13:00:00+00:00,1.7432659204620577
2025-08-06 15:00:00+00:00,1.7432659204620577
2025-08-06 19:00:00+00:00,1.7432659204620577
2025-08-07 13:00:00+00:00,1.7432659204620577
2025-08-07 14:00:00+00:00,1.7432659204620577
2025-08-07 15:00:00+00:00,1.7432659204620577
2025-08-07 16:00:00+00:00,1.7432659204620577
2025-08-07 17:00:00+00:00,1.7432659204620577
2025-08-07 18:00:00+00:00,1.7432659204620577
2025-08-07 19:00:00+00:00,1.7432659204620577
2025-08-08 13:00:00+00:00,1.7432659204620577
2025-08-08 14:00:00+00:00,1.7432659204620577
2025-08-08 16:00:00+00:00,1.7432659204620577
2025-08-08 17:00:00+00:00,1.7432659204620577
2025-08-08 18:00:00+00:00,1.7432659204620577
2025-08-08 19:00:00+00:00,1.7432659204620577
2025-08-11 13:00:00+00:00,1.7432659204620577
2025-08-11 14:00:00+00:00,1.7432659204620577
2025-08-11 15:00:00+00:00,1.7432659204620577
2025-08-11 18:00:00+00:00,1.7432659204620577
2025-08-11 19:00:00+00:00,1.7432659204620577
2025-08-12 13:00:00+00:00,1.7432659204620577
2025-08-12 14:00:00+00:00,1.7432659204620577
2025-08-12 15:00:00+00:00,1.7432659204620577
2025-08-12 16:00:00+00:00,1.7432659204620577
2025-08-12 17:00:00+00:00,1.7432659204620577
2025-08-12 18:00:00+00:00,1.7432659204620577
2025-08-13 13:00:00+00:00,1.7432659204620577
2025-08-13 14:00:00+00:00,1.7432659204620577
2025-08-13 15:00:00+00:00,1.7432659204620577
2025-08-13 16:00:00+00:00,1.7432659204620577
2025-08-13 18:00:00+00:00,1.7432659204620577
2025-08-13 19:00:00+00:00,1.7432659204620577
2025-08-14 13:00:00+00:00,1.7432659204620577
2025-08-14 14:00:00+00:00,1.7432659204620577
2025-08-14 15:00:00+00:00,1.7432659204620577
2025-08-14 16:00:00+00:00,1.7432659204620577
2025-08-14 18:00:00+00:00,1.7432659204620577
2025-08-15 13:00:00+00:00,1.7432659204620577
2025-08-15 14:00:00+00:00,1.7432659204620577
2025-08-15 16:00:00+00:00,1.7432659204620577
2025-08-15 17:00:00+00:00,1.7432659204620577
2025-08-15 18:00:00+00:00,1.7432659204620577
2025-08-18 13:00:00+00:00,1.7432659204620577
2025-08-18 14:00:00+00:00,1.7432659204620577
2025-08-18 15:00:00+00:00,1.7432659204620577
2025-08-18 16:00:00+00:00,1.7432659204620577
2025-08-18 18:00:00+00:00,1.7432659204620577
2025-08-18 19:00:00+00:00,1.7432659204620577
2025-08-19 13:00:00+00:00,1.7432659204620577
2025-08-19 14:00:00+00:00,1.7432659204620577
2025-08-19 15:00:00+00:00,1.7432659204620577
2025-08-19 17:00:00+00:00,1.7432659204620577
2025-08-19 18:00:00+00:00,1.7432659204620577
2025-08-19 19:00:00+00:00,1.7432659204620577
2025-08-20 13:00:00+00:00,1.7432659204620577
2025-08-20 15:00:00+00:00,1.7432659204620577
2025-08-20 16:00:00+00:00,1.7432659204620577
2025-08-20 17:00:00+00:00,1.7432659204620577
2025-08-21 13:00:00+00:00,1.7432659204620577
2025-08-21 14:00:00+00:00,1.7432659204620577
2025-08-21 18:00:00+00:00,1.7432659204620577
2025-08-21 19:00:00+00:00,1.7432659204620577
2025-08-22 13:00:00+00:00,1.7432659204620577
2025-08-22 14:00:00+00:00,1.7432659204620577
2025-08-22 15:00:00+00:00,1.7432659204620577
2025-08-22 16:00:00+00:00,1.7432659204620577
2025-08-22 18:00:00+00:00,1.7432659204620577
2025-08-22 19:00:00+00:00,1.7432659204620577
2025-08-25 13:00:00+00:00,1.7432659204620577
2025-08-25 14:00:00+00:00,1.7432659204620577
2025-08-25 15:00:00+00:00,1.7432659204620577
2025-08-25 17:00:00+00:00,1.7432659204620577
2025-08-26 13:00:00+00:00,1.7432659204620577
2025-08-26 14:00:00+00:00,1.7432659204620577
2025-08-26 18:00:00+00:00,1.7432659204620577
2025-08-26 19:00:00+00:00,1.7432659204620577
2025-08-27 13:00:00+00:00,1.7432659204620577
2025-08-27 14:00:00+00:00,1.7432659204620577
2025-08-27 15:00:00+00:00,1.7432659204620577
2025-08-27 16:00:00+00:00,1.7432659204620577
2025-08-27 17:00:00+00:00,1.7432659204620577
2025-08-27 18:00:00+00:00,1.7432659204620577
2025-08-27 19:00:00+00:00,1.7432659204620577
2025-08-28 14:00:00+00:00,1.7432659204620577
2025-08-28 18:00:00+00:00,1.7432659204620577
2025-08-28 19:00:00+00:00,1.7432659204620577
2025-08-29 15:00:00+00:00,1.7432659204620577
2025-08-29 16:00:00+00:00,1.7432659204620577
2025-08-29 19:00:00+00:00,1.7432659204620577
2025-09-02 13:00:00+00:00,1.7432659204620577
2025-09-02 14:00:00+00:00,1.7432659204620577
2025-09-02 15:00:00+00:00,1.7432659204620577
2025-09-02 18:00:00+00:00,1.7432659204620577
2025-09-02 19:00:00+00:00,1.7432659204620577
2025-09-03 13:00:00+00:00,1.7432659204620577
2025-09-03 15:00:00+00:00,1.7432659204620577
2025-09-03 16:00:00+00:00,1.7432659204620577
2025-09-03 17:00:00+00:00,1.7432659204620577
2025-09-04 13:00:00+00:00,1.7432659204620577
2025-09-04 14:00:00+00:00,1.7432659204620577
2025-09-04 18:00:00+00:00,1.7432659204620577
2025-09-05 13:00:00+00:00,1.7432659204620577
2025-09-05 14:00:00+00:00,1.7432659204620577
2025-09-05 15:00:00+00:00,1.7432659204620577
2025-09-05 16:00:00+00:00,1.7432659204620577
2025-09-05 17:00:00+00:00,1.7432659204620577
2025-09-05 18:00:00+00:00,1.7432659204620577
2025-09-08 13:00:00+00:00,1.7432659204620577
2025-09-08 14:00:00+00:00,1.7432659204620577
2025-09-08 15:00:00+00:00,1.7432659204620577
2025-09-08 18:00:00+00:00,1.7432659204620577
2025-09-08 19:00:00+00:00,1.7432659204620577
2025-09-09 13:00:00+00:00,1.7432659204620577
2025-09-09 14:00:00+00:00,1.7432659204620577
2025-09-09 15:00:00+00:00,1.7432659204620577
2025-09-09 17:00:00+00:00,1.7432659204620577
2025-09-09 18:00:00+00:00,1.7432659204620577
2025-09-09 19:00:00+00:00,1.7432659204620577
2025-09-10 13:00:00+00:00,1.7432659204620577
2025-09-10 14:00:00+00:00,1.7432659204620577
2025-09-10 15:00:00+00:00,1.7432659204620577
2025-09-10 17:00:00+00:00,1.7432659204620577
2025-09-11 13:00:00+00:00,1.7432659204620577
2025-09-11 14:00:00+00:00,1.7432659204620577
2025-09-11 18:00:00+00:00,1.7432659204620577
2025-09-11 19:00:00+00:00,1.7432659204620577
2025-09-12 13:00:00+00:00,1.7432659204620577
2025-09-12 14:00:00+00:00,1.7432659204620577
2025-09-12 15:00:00+00:00,1.7432659204620577
2025-09-12 16:00:00+00:00,1.7432659204620577
2025-09-12 17:00:00+00:00,1.7432659204620577
2025-09-12 18:00:00+00:00,1.7432659204620577
2025-09-12 19:00:00+00:00,1.7432659204620577
2025-09-15 13:00:00+00:00,1.7432659204620577
2025-09-15 14:00:00+00:00,1.7432659204620577
2025-09-15 17:00:00+00:00,1.7432659204620577
2025-09-15 18:00:00+00:00,1.7432659204620577
2025-09-15 19:00:00+00:00,1.7432659204620577
2025-09-16 13:00:00+00:00,1.7432659204620577
2025-09-16 18:00:00+00:00,1.7432659204620577
2025-09-17 13:00:00+00:00,1.7432659204620577
2025-09-17 16:00:00+00:00,1.7432659204620577
2025-09-17 17:00:00+00:00,1.7432659204620577
2025-09-17 18:00:00+00:00,1.7432659204620577
2025-09-17 19:00:00+00:00,1.7432659204620577
2025-09-18 13:00:00+00:00,1.7432659204620577
2025-09-18 14:00:00+00:00,1.7432659204620577
2025-09-18 16:00:00+00:00,1.7432659204620577
2025-09-18 18:00:00+00:00,1.7432659204620577
2025-09-19 13:00:00+00:00,1.7432659204620577
2025-09-19 15:00:00+00:00,1.7432659204620577
2025-09-19 17:00:00+00:00,1.7432659204620577
2025-09-19 19:00:00+00:00,1.7432659204620577
2025-09-22 13:00:00+00:00,1.7432659204620577
2025-09-22 14:00:00+00:00,1.7432659204620577
2025-09-22 15:00:00+00:00,1.7432659204620577
2025-09-22 18:00:00+00:00,1.7432659204620577
2025-09-22 19:00:00+00:00,1.7432659204620577
2025-09-23 13:00:00+00:00,1.7432659204620577
2025-09-23 14:00:00+00:00,1.7432659204620577
2025-09-23 15:00:00+00:00,1.7432659204620577
2025-09-23 19:00:00+00:00,1.7432659204620577
2025-09-24 15:00:00+00:00,1.7432659204620577
2025-09-24 17:00:00+00:00,1.7432659204620577
2025-09-24 18:00:00+00:00,1.7432659204620577
2025-09-24 19:00:00+00:00,1.7432659204620577
2025-09-25 13:00:00+00:00,1.7432659204620577
2025-09-25 15:00:00+00:00,1.7432659204620577
2025-09-25 17:00:00+00:00,1.7432659204620577
2025-09-25 18:00:00+00:00,1.7432659204620577
2025-09-26 13:00:00+00:00,1.7432659204620577
2025-09-26 14:00:00+00:00,1.7432659204620577
2025-09-26 17:00:00+00:00,1.7432659204620577
2025-09-26 18:00:00+00:00,1.7432659204620577
2025-09-26 19:00:00+00:00,1.7432659204620577
2025-09-29 13:00:00+00:00,1.7432659204620577
2025-09-29 14:00:00+00:00,1.7432659204620577
2025-09-29 16:00:00+00:00,1.7432659204620577
2025-09-29 17:00:00+00:00,1.7432659204620577
2025-09-29 18:00:00+00:00,1.7432659204620577
2025-09-29 19:00:00+00:00,1.7432659204620577
2025-09-30 13:00:00+00:00,1.7432659204620577
2025-09-30 14:00:00+00:00,1.7432659204620577
2025-09-30 15:00:00+00:00,1.7432659204620577
2025-09-30 16:00:00+00:00,1.7432659204620577
2025-09-30 18:00:00+00:00,1.7432659204620577
2025-09-30 19:00:00+00:00,1.7432659204620577
2025-10-01 13:00:00+00:00,1.7432659204620577
2025-10-01 14:00:00+00:00,1.7432659204620577
2025-10-01 16:00:00+00:00,1.7432659204620577
2025-10-01 19:00:00+00:00,1.7432659204620577
2025-10-02 13:00:00+00:00,1.7432659204620577
2025-10-02 14:00:00+00:00,1.7432659204620577
2025-10-02 15:00:00+00:00,1.7432659204620577
2025-10-02 16:00:00+00:00,1.7432659204620577
2025-10-02 17:00:00+00:00,1.7432659204620577
2025-10-02 18:00:00+00:00,1.7432659204620577
2025-10-02 19:00:00+00:00,1.7432659204620577
2025-10-03 13:00:00+00:00,1.7432659204620577
2025-10-03 14:00:00+00:00,1.7432659204620577
2025-10-03 15:00:00+00:00,1.7432659204620577
2025-10-03 16:00:00+00:00,1.7432659204620577
2025-10-03 17:00:00+00:00,1.7432659204620577
2025-10-03 19:00:00+00:00,1.7432659204620577
2025-10-06 13:00:00+00:00,1.7432659204620577
2025-10-06 14:00:00+00:00,1.7432659204620577
2025-10-06 15:00:00+00:00,1.7432659204620577
2025-10-06 16:00:00+00:00,1.7432659204620577
2025-10-06 17:00:00+00:00,1.7432659204620577
2025-10-06 18:00:00+00:00,1.7432659204620577
2025-10-06 19:00:00+00:00,1.7432659204620577
2025-10-07 13:00:00+00:00,1.7432659204620577
2025-10-07 14:00:00+00:00,1.7432659204620577
2025-10-07 15:00:00+00:00,1.7432659204620577
2025-10-07 16:00:00+00:00,1.7432659204620577
2025-10-07 17:00:00+00:00,1.7432659204620577
2025-10-07 18:00:00+00:00,1.7432659204620577
2025-10-07 19:00:00+00:00,1.7432659204620577
2025-10-08 13:00:00+00:00,1.7432659204620577
2025-10-08 14:00:00+00:00,1.7432659204620577
2025-10-08 15:00:00+00:00,1.7432659204620577
2025-10-08 18:00:00+00:00,1.7432659204620577
2025-10-08 19:00:00+00:00,1.7432659204620577
2025-10-09 13:00:00+00:00,1.7432659204620577
2025-10-09 14:00:00+00:00,1.7432659204620577
2025-10-09 15:00:00+00:00,1.7432659204620577
2025-10-09 18:00:00+00:00,1.7432659204620577
2025-10-10 13:00:00+00:00,1.7432659204620577
2025-10-10 14:00:00+00:00,1.7432659204620577
2025-10-10 15:00:00+00:00,1.7432659204620577
2025-10-10 16:00:00+00:00,1.7432659204620577
2025-10-10 18:00:00+00:00,1.7432659204620577
2025-10-13 13:00:00+00:00,1.7432659204620577
2025-10-13 14:00:00+00:00,1.7432659204620577
2025-10-13 15:00:00+00:00,1.7432659204620577
2025-10-13 16:00:00+00:00,1.7432659204620577
2025-10-13 18:00:00+00:00,1.7432659204620577
2025-10-13 19:00:00+00:00,1.7432659204620577
2025-10-14 13:00:00+00:00,1.7432659204620577
2025-10-14 14:00:00+00:00,1.7432659204620577
2025-10-14 16:00:00+00:00,1.7432659204620577
2025-10-14 17:00:00+00:00,1.7432659204620577
2025-10-14 18:00:00+00:00,1.7432659204620577
2025-10-14 19:00:00+00:00,1.7432659204620577
2025-10-15 13:00:00+00:00,1.7432659204620577
2025-10-15 14:00:00+00:00,1.7432659204620577
2025-10-15 15:00:00+00:00,1.7432659204620577
2025-10-15 18:00:00+00:00,1.7432659204620577
2025-10-15 19:00:00+00:00,1.7432659204620577
2025-10-16 13:00:00+00:00,1.7432659204620577
2025-10-16 14:00:00+00:00,1.7432659204620577
2025-10-16 15:00:00+00:00,1.7432659204620577
2025-10-16 16:00:00+00:00,1.7432659204620577
2025-10-16 17:00:00+00:00,1.7432659204620577
2025-10-16 18:00:00+00:00,1.7432659204620577
2025-10-16 19:00:00+00:00,1.7432659204620577
2025-10-17 13:00:00+00:00,1.7432659204620577
2025-10-17 14:00:00+00:00,1.7432659204620577
2025-10-17 15:00:00+00:00,1.7432659204620577
2025-10-17 17:00:00+00:00,1.7432659204620577
2025-10-17 18:00:00+00:00,1.7432659204620577
2025-10-20 13:00:00+00:00,1.7432659204620577
2025-10-20 14:00:00+00:00,1.7432659204620577
2025-10-20 17:00:00+00:00,1.7432659204620577
2025-10-20 18:00:00+00:00,1.7432659204620577
2025-10-21 13:00:00+00:00,1.7432659204620577
2025-10-21 14:00:00+00:00,1.7432659204620577
2025-10-21 16:00:00+00:00,1.7432659204620577
2025-10-21 17:00:00+00:00,1.7432659204620577
2025-10-21 18:00:00+00:00,1.7432659204620577
2025-10-21 19:00:00+00:00,1.7432659204620577
2025-10-22 13:00:00+00:00,1.7432659204620577
2025-10-22 14:00:00+00:00,1.7432659204620577
2025-10-22 16:00:00+00:00,1.7432659204620577
2025-10-22 17:00:00+00:00,1.7432659204620577
2025-10-22 18:00:00+00:00,1.7432659204620577
2025-10-22 19:00:00+00:00,1.7432659204620577
