Date,0
2024-01-02 14:00:00+00:00,0.0
2024-01-02 15:00:00+00:00,0.0
2024-01-02 16:00:00+00:00,0.0
2024-01-02 17:00:00+00:00,0.0
2024-01-02 18:00:00+00:00,0.0
2024-01-02 19:00:00+00:00,0.0
2024-01-02 20:00:00+00:00,0.0
2024-01-03 14:00:00+00:00,0.0
2024-01-03 15:00:00+00:00,0.0
2024-01-03 16:00:00+00:00,0.0
2024-01-03 17:00:00+00:00,0.0
2024-01-03 18:00:00+00:00,0.0
2024-01-03 19:00:00+00:00,0.0
2024-01-03 20:00:00+00:00,0.0
2024-01-04 14:00:00+00:00,0.0
2024-01-04 15:00:00+00:00,0.0
2024-01-04 16:00:00+00:00,0.0
2024-01-04 17:00:00+00:00,0.0
2024-01-04 18:00:00+00:00,0.0
2024-01-04 19:00:00+00:00,0.0
2024-01-04 20:00:00+00:00,0.0
2024-01-05 14:00:00+00:00,0.0
2024-01-05 15:00:00+00:00,0.0
2024-01-05 16:00:00+00:00,0.0
2024-01-05 17:00:00+00:00,0.0
2024-01-05 18:00:00+00:00,0.0
2024-01-05 19:00:00+00:00,0.0
2024-01-05 20:00:00+00:00,0.0
2024-01-08 14:00:00+00:00,0.0
2024-01-08 15:00:00+00:00,0.0
2024-01-08 16:00:00+00:00,0.0
2024-01-08 17:00:00+00:00,0.0
2024-01-08 18:00:00+00:00,0.0
2024-01-08 19:00:00+00:00,0.0
2024-01-08 20:00:00+00:00,0.0
2024-01-09 14:00:00+00:00,0.0
2024-01-09 15:00:00+00:00,0.0
2024-01-09 16:00:00+00:00,0.0
2024-01-09 17:00:00+00:00,0.0
2024-01-09 18:00:00+00:00,0.0
2024-01-09 19:00:00+00:00,0.0
2024-01-09 20:00:00+00:00,0.0
2024-01-10 14:00:00+00:00,0.0
2024-01-10 15:00:00+00:00,0.0
2024-01-10 16:00:00+00:00,0.0
2024-01-10 17:00:00+00:00,0.0
2024-01-10 18:00:00+00:00,0.0
2024-01-10 19:00:00+00:00,0.0
2024-01-10 20:00:00+00:00,0.0
2024-01-11 14:00:00+00:00,0.0
2024-01-11 15:00:00+00:00,0.0
2024-01-11 16:00:00+00:00,0.0
2024-01-11 17:00:00+00:00,0.0
2024-01-11 18:00:00+00:00,0.0
2024-01-11 19:00:00+00:00,0.0
2024-01-11 20:00:00+00:00,0.0
2024-01-12 14:00:00+00:00,0.0
2024-01-12 15:00:00+00:00,0.0
2024-01-12 16:00:00+00:00,0.0
2024-01-12 17:00:00+00:00,0.0
2024-01-12 18:00:00+00:00,0.0
2024-01-12 19:00:00+00:00,0.0
2024-01-12 20:00:00+00:00,0.0
2024-01-16 14:00:00+00:00,0.0
2024-01-16 15:00:00+00:00,0.0
2024-01-16 16:00:00+00:00,0.0
2024-01-16 17:00:00+00:00,0.0
2024-01-16 18:00:00+00:00,0.0
2024-01-16 19:00:00+00:00,0.0
2024-01-16 20:00:00+00:00,0.0
2024-01-17 14:00:00+00:00,0.0
2024-01-17 15:00:00+00:00,0.0
2024-01-17 16:00:00+00:00,0.0
2024-01-17 17:00:00+00:00,0.0
2024-01-17 18:00:00+00:00,0.0
2024-01-17 19:00:00+00:00,0.0
2024-01-17 20:00:00+00:00,0.0
2024-01-18 14:00:00+00:00,0.0
2024-01-18 15:00:00+00:00,0.0
2024-01-18 16:00:00+00:00,0.0
2024-01-18 17:00:00+00:00,0.0
2024-01-18 18:00:00+00:00,0.0
2024-01-18 19:00:00+00:00,0.0
2024-01-18 20:00:00+00:00,0.0
2024-01-19 14:00:00+00:00,0.0
2024-01-19 15:00:00+00:00,0.0
2024-01-19 16:00:00+00:00,0.0
2024-01-19 17:00:00+00:00,0.0
2024-01-19 18:00:00+00:00,0.0
2024-01-19 19:00:00+00:00,0.0
2024-01-19 20:00:00+00:00,0.0
2024-01-22 14:00:00+00:00,0.0
2024-01-22 15:00:00+00:00,0.0
2024-01-22 16:00:00+00:00,0.0
2024-01-22 17:00:00+00:00,0.0
2024-01-22 18:00:00+00:00,0.0
2024-01-22 19:00:00+00:00,0.0
2024-01-22 20:00:00+00:00,0.0
2024-01-23 14:00:00+00:00,0.0
2024-01-23 15:00:00+00:00,0.0
2024-01-23 16:00:00+00:00,0.0
2024-01-23 17:00:00+00:00,0.0
2024-01-23 18:00:00+00:00,0.0
2024-01-23 19:00:00+00:00,0.0
2024-01-23 20:00:00+00:00,0.0
2024-01-24 14:00:00+00:00,0.0
2024-01-24 15:00:00+00:00,0.0
2024-01-24 16:00:00+00:00,0.0
2024-01-24 17:00:00+00:00,0.0
2024-01-24 18:00:00+00:00,0.0
2024-01-24 19:00:00+00:00,0.0
2024-01-24 20:00:00+00:00,0.0
2024-01-25 14:00:00+00:00,0.0
2024-01-25 15:00:00+00:00,0.0
2024-01-25 16:00:00+00:00,0.0
2024-01-25 17:00:00+00:00,0.0
2024-01-25 18:00:00+00:00,0.0
2024-01-25 19:00:00+00:00,0.0
2024-01-25 20:00:00+00:00,0.0
2024-01-26 14:00:00+00:00,0.0
2024-01-26 15:00:00+00:00,0.0
2024-01-26 16:00:00+00:00,0.0
2024-01-26 17:00:00+00:00,0.0
2024-01-26 18:00:00+00:00,0.0
2024-01-26 19:00:00+00:00,0.0
2024-01-26 20:00:00+00:00,0.0
2024-01-29 14:00:00+00:00,0.0
2024-01-29 15:00:00+00:00,0.0
2024-01-29 16:00:00+00:00,0.0
2024-01-29 17:00:00+00:00,0.0
2024-01-29 18:00:00+00:00,0.0
2024-01-29 19:00:00+00:00,0.0
2024-01-29 20:00:00+00:00,0.0
2024-01-30 14:00:00+00:00,0.0
2024-01-30 15:00:00+00:00,0.0
2024-01-30 16:00:00+00:00,0.0
2024-01-30 17:00:00+00:00,0.0
2024-01-30 18:00:00+00:00,0.0
2024-01-30 19:00:00+00:00,0.0
2024-01-30 20:00:00+00:00,0.0
2024-01-31 14:00:00+00:00,0.0
2024-01-31 15:00:00+00:00,0.0
2024-01-31 16:00:00+00:00,0.0
2024-01-31 17:00:00+00:00,0.0
2024-01-31 18:00:00+00:00,0.0
2024-01-31 19:00:00+00:00,0.0
2024-01-31 20:00:00+00:00,0.0
2024-02-01 14:00:00+00:00,0.0
2024-02-01 15:00:00+00:00,0.0
2024-02-01 16:00:00+00:00,0.0
2024-02-01 17:00:00+00:00,0.0
2024-02-01 18:00:00+00:00,0.0
2024-02-01 19:00:00+00:00,0.0
2024-02-01 20:00:00+00:00,0.0
2024-02-02 14:00:00+00:00,0.0
2024-02-02 15:00:00+00:00,0.0
2024-02-02 16:00:00+00:00,0.0
2024-02-02 17:00:00+00:00,0.0
2024-02-02 18:00:00+00:00,0.0
2024-02-02 19:00:00+00:00,0.0
2024-02-02 20:00:00+00:00,0.0
2024-02-05 14:00:00+00:00,0.0
2024-02-05 15:00:00+00:00,0.0
2024-02-05 16:00:00+00:00,0.0
2024-02-05 17:00:00+00:00,0.0
2024-02-05 18:00:00+00:00,0.0
2024-02-05 19:00:00+00:00,0.0
2024-02-05 20:00:00+00:00,0.0
2024-02-06 14:00:00+00:00,0.0
2024-02-06 15:00:00+00:00,0.0
2024-02-06 16:00:00+00:00,0.0
2024-02-06 17:00:00+00:00,0.0
2024-02-06 18:00:00+00:00,0.0
2024-02-06 19:00:00+00:00,0.0
2024-02-06 20:00:00+00:00,0.0
2024-02-07 14:00:00+00:00,0.0
2024-02-07 15:00:00+00:00,0.0
2024-02-07 16:00:00+00:00,0.0
2024-02-07 17:00:00+00:00,0.0
2024-02-07 18:00:00+00:00,0.0
2024-02-07 19:00:00+00:00,0.0
2024-02-07 20:00:00+00:00,0.0
2024-02-08 14:00:00+00:00,0.0
2024-02-08 15:00:00+00:00,0.0
2024-02-08 16:00:00+00:00,0.0
2024-02-08 17:00:00+00:00,0.0
2024-02-08 18:00:00+00:00,0.0
2024-02-08 19:00:00+00:00,0.0
2024-02-08 20:00:00+00:00,0.0
2024-02-09 14:00:00+00:00,0.0
2024-02-09 15:00:00+00:00,0.0
2024-02-09 16:00:00+00:00,0.0
2024-02-09 17:00:00+00:00,0.0
2024-02-09 18:00:00+00:00,0.0
2024-02-09 19:00:00+00:00,0.0
2024-02-09 20:00:00+00:00,0.0
2024-02-12 14:00:00+00:00,0.0
2024-02-12 15:00:00+00:00,0.0
2024-02-12 16:00:00+00:00,0.0
2024-02-12 17:00:00+00:00,0.0
2024-02-12 18:00:00+00:00,0.0
2024-02-12 19:00:00+00:00,0.0
2024-02-12 20:00:00+00:00,0.0
2024-02-13 14:00:00+00:00,0.0
2024-02-13 15:00:00+00:00,0.0
2024-02-13 16:00:00+00:00,0.0
2024-02-13 17:00:00+00:00,0.0
2024-02-13 18:00:00+00:00,0.0
2024-02-13 19:00:00+00:00,0.0
2024-02-13 20:00:00+00:00,0.0
2024-02-14 14:00:00+00:00,0.0
2024-02-14 15:00:00+00:00,0.0
2024-02-14 16:00:00+00:00,0.0
2024-02-14 17:00:00+00:00,0.0
2024-02-14 18:00:00+00:00,0.0
2024-02-14 19:00:00+00:00,0.0
2024-02-14 20:00:00+00:00,0.0
2024-02-15 14:00:00+00:00,0.0
2024-02-15 15:00:00+00:00,0.0
2024-02-15 16:00:00+00:00,0.0
2024-02-15 17:00:00+00:00,0.0
2024-02-15 18:00:00+00:00,0.0
2024-02-15 19:00:00+00:00,0.0
2024-02-15 20:00:00+00:00,0.0
2024-02-16 14:00:00+00:00,0.0
2024-02-16 15:00:00+00:00,0.0
2024-02-16 16:00:00+00:00,0.0
2024-02-16 17:00:00+00:00,0.0
2024-02-16 18:00:00+00:00,0.0
2024-02-16 19:00:00+00:00,0.0
2024-02-16 20:00:00+00:00,0.0
2024-02-20 14:00:00+00:00,0.0
2024-02-20 15:00:00+00:00,0.0
2024-02-20 16:00:00+00:00,0.0
2024-02-20 17:00:00+00:00,0.0
2024-02-20 18:00:00+00:00,0.0
2024-02-20 19:00:00+00:00,0.0
2024-02-20 20:00:00+00:00,0.0
2024-02-21 14:00:00+00:00,0.0
2024-02-21 15:00:00+00:00,0.0
2024-02-21 16:00:00+00:00,0.0
2024-02-21 17:00:00+00:00,0.0
2024-02-21 18:00:00+00:00,0.0
2024-02-21 19:00:00+00:00,0.0
2024-02-21 20:00:00+00:00,0.0
2024-02-22 14:00:00+00:00,0.0
2024-02-22 15:00:00+00:00,0.0
2024-02-22 16:00:00+00:00,0.0
2024-02-22 17:00:00+00:00,0.0
2024-02-22 18:00:00+00:00,0.0
2024-02-22 19:00:00+00:00,0.0
2024-02-22 20:00:00+00:00,0.0
2024-02-23 14:00:00+00:00,0.0
2024-02-23 15:00:00+00:00,0.0
2024-02-23 16:00:00+00:00,0.0
2024-02-23 17:00:00+00:00,0.0
2024-02-23 18:00:00+00:00,0.0
2024-02-23 19:00:00+00:00,0.0
2024-02-23 20:00:00+00:00,0.0
2024-02-26 14:00:00+00:00,0.0
2024-02-26 15:00:00+00:00,0.0
2024-02-26 16:00:00+00:00,0.0
2024-02-26 17:00:00+00:00,0.0
2024-02-26 18:00:00+00:00,0.0
2024-02-26 19:00:00+00:00,0.0
2024-02-26 20:00:00+00:00,0.0
2024-02-27 14:00:00+00:00,0.0
2024-02-27 15:00:00+00:00,0.0
2024-02-27 16:00:00+00:00,0.0
2024-02-27 17:00:00+00:00,0.0
2024-02-27 18:00:00+00:00,0.0
2024-02-27 19:00:00+00:00,0.0
2024-02-27 20:00:00+00:00,0.0
2024-02-28 14:00:00+00:00,0.0
2024-02-28 15:00:00+00:00,0.0
2024-02-28 16:00:00+00:00,0.0
2024-02-28 17:00:00+00:00,0.0
2024-02-28 18:00:00+00:00,0.0
2024-02-28 19:00:00+00:00,0.0
2024-02-28 20:00:00+00:00,0.0
2024-02-29 14:00:00+00:00,0.0
2024-02-29 15:00:00+00:00,0.0
2024-02-29 16:00:00+00:00,0.0
2024-02-29 17:00:00+00:00,0.0
2024-02-29 18:00:00+00:00,0.0
2024-02-29 19:00:00+00:00,0.0
2024-02-29 20:00:00+00:00,0.0
2024-03-01 14:00:00+00:00,0.0
2024-03-01 15:00:00+00:00,0.0
2024-03-01 16:00:00+00:00,0.0
2024-03-01 17:00:00+00:00,0.0
2024-03-01 18:00:00+00:00,0.0
2024-03-01 19:00:00+00:00,0.0
2024-03-01 20:00:00+00:00,0.0
2024-03-04 14:00:00+00:00,0.0
2024-03-04 15:00:00+00:00,0.0
2024-03-04 16:00:00+00:00,0.0
2024-03-04 17:00:00+00:00,0.0
2024-03-04 18:00:00+00:00,0.0
2024-03-04 19:00:00+00:00,0.0
2024-03-04 20:00:00+00:00,0.0
2024-03-05 14:00:00+00:00,0.0
2024-03-05 15:00:00+00:00,0.0
2024-03-05 16:00:00+00:00,0.0
2024-03-05 17:00:00+00:00,0.0
2024-03-05 18:00:00+00:00,0.0
2024-03-05 19:00:00+00:00,0.0
2024-03-05 20:00:00+00:00,0.0
2024-03-06 14:00:00+00:00,0.0
2024-03-06 15:00:00+00:00,0.0
2024-03-06 16:00:00+00:00,0.0
2024-03-06 17:00:00+00:00,0.0
2024-03-06 18:00:00+00:00,0.0
2024-03-06 19:00:00+00:00,0.0
2024-03-06 20:00:00+00:00,0.0
2024-03-07 14:00:00+00:00,0.0
2024-03-07 15:00:00+00:00,0.0
2024-03-07 16:00:00+00:00,0.0
2024-03-07 17:00:00+00:00,0.0
2024-03-07 18:00:00+00:00,0.0
2024-03-07 19:00:00+00:00,0.0
2024-03-07 20:00:00+00:00,0.0
2024-03-08 14:00:00+00:00,0.0
2024-03-08 15:00:00+00:00,0.0
2024-03-08 16:00:00+00:00,0.0
2024-03-08 17:00:00+00:00,0.0
2024-03-08 18:00:00+00:00,0.0
2024-03-08 19:00:00+00:00,0.0
2024-03-08 20:00:00+00:00,0.0
2024-03-11 13:00:00+00:00,0.0
2024-03-11 14:00:00+00:00,0.0
2024-03-11 15:00:00+00:00,0.0
2024-03-11 16:00:00+00:00,0.0
2024-03-11 17:00:00+00:00,0.0
2024-03-11 18:00:00+00:00,0.0
2024-03-11 19:00:00+00:00,0.0
2024-03-12 13:00:00+00:00,0.0
2024-03-12 14:00:00+00:00,0.0
2024-03-12 15:00:00+00:00,0.0
2024-03-12 16:00:00+00:00,0.0
2024-03-12 17:00:00+00:00,0.0
2024-03-12 18:00:00+00:00,0.0
2024-03-12 19:00:00+00:00,0.0
2024-03-13 13:00:00+00:00,0.0
2024-03-13 14:00:00+00:00,0.0
2024-03-13 15:00:00+00:00,0.0
2024-03-13 16:00:00+00:00,0.0
2024-03-13 17:00:00+00:00,0.0
2024-03-13 18:00:00+00:00,0.0
2024-03-13 19:00:00+00:00,0.0
2024-03-14 13:00:00+00:00,0.0
2024-03-14 14:00:00+00:00,0.0
2024-03-14 15:00:00+00:00,0.0
2024-03-14 16:00:00+00:00,0.0
2024-03-14 17:00:00+00:00,0.0
2024-03-14 18:00:00+00:00,0.0
2024-03-14 19:00:00+00:00,0.0
2024-03-15 13:00:00+00:00,0.0
2024-03-15 14:00:00+00:00,0.0
2024-03-15 15:00:00+00:00,0.0
2024-03-15 16:00:00+00:00,0.0
2024-03-15 17:00:00+00:00,0.0
2024-03-15 18:00:00+00:00,0.0
2024-03-15 19:00:00+00:00,0.0
2024-03-18 13:00:00+00:00,0.0
2024-03-18 14:00:00+00:00,0.0
2024-03-18 15:00:00+00:00,0.0
2024-03-18 16:00:00+00:00,0.0
2024-03-18 17:00:00+00:00,0.0
2024-03-18 18:00:00+00:00,0.0
2024-03-18 19:00:00+00:00,0.0
2024-03-19 13:00:00+00:00,0.0
2024-03-19 14:00:00+00:00,0.0
2024-03-19 15:00:00+00:00,0.0
2024-03-19 16:00:00+00:00,0.0
2024-03-19 17:00:00+00:00,0.0
2024-03-19 18:00:00+00:00,0.0
2024-03-19 19:00:00+00:00,0.0
2024-03-20 13:00:00+00:00,0.0
2024-03-20 14:00:00+00:00,0.0
2024-03-20 15:00:00+00:00,0.0
2024-03-20 16:00:00+00:00,0.0
2024-03-20 17:00:00+00:00,0.0
2024-03-20 18:00:00+00:00,0.0
2024-03-20 19:00:00+00:00,0.0
2024-03-21 13:00:00+00:00,0.0
2024-03-21 14:00:00+00:00,0.0
2024-03-21 15:00:00+00:00,0.0
2024-03-21 16:00:00+00:00,0.0
2024-03-21 17:00:00+00:00,0.0
2024-03-21 18:00:00+00:00,0.0
2024-03-21 19:00:00+00:00,0.0
2024-03-22 13:00:00+00:00,0.0
2024-03-22 14:00:00+00:00,0.0
2024-03-22 15:00:00+00:00,0.0
2024-03-22 16:00:00+00:00,0.0
2024-03-22 17:00:00+00:00,0.0
2024-03-22 18:00:00+00:00,0.0
2024-03-22 19:00:00+00:00,0.0
2024-03-25 13:00:00+00:00,0.0
2024-03-25 14:00:00+00:00,0.0
2024-03-25 15:00:00+00:00,0.0
2024-03-25 16:00:00+00:00,0.0
2024-03-25 17:00:00+00:00,0.0
2024-03-25 18:00:00+00:00,0.0
2024-03-25 19:00:00+00:00,0.0
2024-03-26 13:00:00+00:00,0.0
2024-03-26 14:00:00+00:00,0.0
2024-03-26 15:00:00+00:00,0.0
2024-03-26 16:00:00+00:00,0.0
2024-03-26 17:00:00+00:00,0.0
2024-03-26 18:00:00+00:00,0.0
2024-03-26 19:00:00+00:00,0.0
2024-03-27 13:00:00+00:00,0.0
2024-03-27 14:00:00+00:00,0.0
2024-03-27 15:00:00+00:00,0.0
2024-03-27 16:00:00+00:00,0.0
2024-03-27 17:00:00+00:00,0.0
2024-03-27 18:00:00+00:00,0.0
2024-03-27 19:00:00+00:00,0.0
2024-03-28 13:00:00+00:00,0.0
2024-03-28 14:00:00+00:00,0.0
2024-03-28 15:00:00+00:00,0.0
2024-03-28 16:00:00+00:00,0.0
2024-03-28 17:00:00+00:00,0.0
2024-03-28 18:00:00+00:00,0.0
2024-03-28 19:00:00+00:00,0.0
2024-04-01 13:00:00+00:00,0.0
2024-04-01 14:00:00+00:00,0.0
2024-04-01 15:00:00+00:00,0.0
2024-04-01 16:00:00+00:00,0.0
2024-04-01 17:00:00+00:00,0.0
2024-04-01 18:00:00+00:00,0.0
2024-04-01 19:00:00+00:00,0.0
2024-04-02 13:00:00+00:00,0.0
2024-04-02 14:00:00+00:00,0.0
2024-04-02 15:00:00+00:00,0.0
2024-04-02 16:00:00+00:00,0.0
2024-04-02 17:00:00+00:00,0.0
2024-04-02 18:00:00+00:00,0.0
2024-04-02 19:00:00+00:00,0.0
2024-04-03 13:00:00+00:00,0.0
2024-04-03 14:00:00+00:00,0.0
2024-04-03 15:00:00+00:00,0.0
2024-04-03 16:00:00+00:00,0.0
2024-04-03 17:00:00+00:00,0.0
2024-04-03 18:00:00+00:00,0.0
2024-04-03 19:00:00+00:00,0.0
2024-04-04 13:00:00+00:00,0.0
2024-04-04 14:00:00+00:00,0.0
2024-04-04 15:00:00+00:00,0.0
2024-04-04 16:00:00+00:00,0.0
2024-04-04 17:00:00+00:00,0.0
2024-04-04 18:00:00+00:00,0.0
2024-04-04 19:00:00+00:00,0.0
2024-04-05 13:00:00+00:00,0.0
2024-04-05 14:00:00+00:00,0.0
2024-04-05 15:00:00+00:00,0.0
2024-04-05 16:00:00+00:00,0.0
2024-04-05 17:00:00+00:00,0.0
2024-04-05 18:00:00+00:00,0.0
2024-04-05 19:00:00+00:00,0.0
2024-04-08 13:00:00+00:00,0.0
2024-04-08 14:00:00+00:00,0.0
2024-04-08 15:00:00+00:00,0.0
2024-04-08 16:00:00+00:00,0.0
2024-04-08 17:00:00+00:00,0.0
2024-04-08 18:00:00+00:00,0.0
2024-04-08 19:00:00+00:00,0.0
2024-04-09 13:00:00+00:00,0.0
2024-04-09 14:00:00+00:00,0.0
2024-04-09 15:00:00+00:00,0.0
2024-04-09 16:00:00+00:00,0.0
2024-04-09 17:00:00+00:00,0.0
2024-04-09 18:00:00+00:00,0.0
2024-04-09 19:00:00+00:00,0.0
2024-04-10 13:00:00+00:00,0.0
2024-04-10 14:00:00+00:00,0.0
2024-04-10 15:00:00+00:00,0.0
2024-04-10 16:00:00+00:00,0.0
2024-04-10 17:00:00+00:00,0.0
2024-04-10 18:00:00+00:00,0.0
2024-04-10 19:00:00+00:00,0.0
2024-04-11 13:00:00+00:00,0.0
2024-04-11 14:00:00+00:00,0.0
2024-04-11 15:00:00+00:00,0.0
2024-04-11 16:00:00+00:00,0.0
2024-04-11 17:00:00+00:00,0.0
2024-04-11 18:00:00+00:00,0.0
2024-04-11 19:00:00+00:00,0.0
2024-04-12 13:00:00+00:00,0.0
2024-04-12 14:00:00+00:00,0.0
2024-04-12 15:00:00+00:00,0.0
2024-04-12 16:00:00+00:00,0.0
2024-04-12 17:00:00+00:00,0.0
2024-04-12 18:00:00+00:00,0.0
2024-04-12 19:00:00+00:00,0.0
2024-04-15 13:00:00+00:00,0.0
2024-04-15 14:00:00+00:00,0.0
2024-04-15 15:00:00+00:00,0.0
2024-04-15 16:00:00+00:00,0.0
2024-04-15 17:00:00+00:00,0.0
2024-04-15 18:00:00+00:00,0.0
2024-04-15 19:00:00+00:00,0.0
2024-04-16 13:00:00+00:00,0.0
2024-04-16 14:00:00+00:00,0.0
2024-04-16 15:00:00+00:00,0.0
2024-04-16 16:00:00+00:00,0.0
2024-04-16 17:00:00+00:00,0.0
2024-04-16 18:00:00+00:00,0.0
2024-04-16 19:00:00+00:00,0.0
2024-04-17 13:00:00+00:00,0.0
2024-04-17 14:00:00+00:00,0.0
2024-04-17 15:00:00+00:00,0.0
2024-04-17 16:00:00+00:00,0.0
2024-04-17 17:00:00+00:00,0.0
2024-04-17 18:00:00+00:00,0.0
2024-04-17 19:00:00+00:00,0.0
2024-04-18 13:00:00+00:00,0.0
2024-04-18 14:00:00+00:00,0.0
2024-04-18 15:00:00+00:00,0.0
2024-04-18 16:00:00+00:00,0.0
2024-04-18 17:00:00+00:00,0.0
2024-04-18 18:00:00+00:00,0.0
2024-04-18 19:00:00+00:00,0.0
2024-04-19 13:00:00+00:00,0.0
2024-04-19 14:00:00+00:00,0.0
2024-04-19 15:00:00+00:00,0.0
2024-04-19 16:00:00+00:00,0.0
2024-04-19 17:00:00+00:00,0.0
2024-04-19 18:00:00+00:00,0.0
2024-04-19 19:00:00+00:00,0.0
2024-04-22 13:00:00+00:00,0.0
2024-04-22 14:00:00+00:00,0.0
2024-04-22 15:00:00+00:00,0.0
2024-04-22 16:00:00+00:00,0.0
2024-04-22 17:00:00+00:00,0.0
2024-04-22 18:00:00+00:00,0.0
2024-04-22 19:00:00+00:00,0.0
2024-04-23 13:00:00+00:00,0.0
2024-04-23 14:00:00+00:00,0.0
2024-04-23 15:00:00+00:00,0.0
2024-04-23 16:00:00+00:00,0.0
2024-04-23 17:00:00+00:00,0.0
2024-04-23 18:00:00+00:00,0.0
2024-04-23 19:00:00+00:00,0.0
2024-04-24 13:00:00+00:00,0.0
2024-04-24 14:00:00+00:00,0.0
2024-04-24 15:00:00+00:00,0.0
2024-04-24 16:00:00+00:00,0.0
2024-04-24 17:00:00+00:00,0.0
2024-04-24 18:00:00+00:00,0.0
2024-04-24 19:00:00+00:00,0.0
2024-04-25 13:00:00+00:00,0.0
2024-04-25 14:00:00+00:00,0.0
2024-04-25 15:00:00+00:00,0.0
2024-04-25 16:00:00+00:00,0.0
2024-04-25 17:00:00+00:00,0.0
2024-04-25 18:00:00+00:00,0.0
2024-04-25 19:00:00+00:00,0.0
2024-04-26 13:00:00+00:00,0.0
2024-04-26 14:00:00+00:00,0.0
2024-04-26 15:00:00+00:00,0.0
2024-04-26 16:00:00+00:00,0.0
2024-04-26 17:00:00+00:00,0.0
2024-04-26 18:00:00+00:00,0.0
2024-04-26 19:00:00+00:00,0.0
2024-04-29 13:00:00+00:00,0.0
2024-04-29 14:00:00+00:00,0.0
2024-04-29 15:00:00+00:00,0.0
2024-04-29 16:00:00+00:00,0.0
2024-04-29 17:00:00+00:00,0.0
2024-04-29 18:00:00+00:00,0.0
2024-04-29 19:00:00+00:00,0.0
2024-04-30 13:00:00+00:00,0.0
2024-04-30 14:00:00+00:00,0.0
2024-04-30 15:00:00+00:00,0.0
2024-04-30 16:00:00+00:00,0.0
2024-04-30 17:00:00+00:00,0.0
2024-04-30 18:00:00+00:00,0.0
2024-04-30 19:00:00+00:00,0.0
2024-05-01 13:00:00+00:00,0.0
2024-05-01 14:00:00+00:00,0.0
2024-05-01 15:00:00+00:00,0.0
2024-05-01 16:00:00+00:00,0.0
2024-05-01 17:00:00+00:00,0.0
2024-05-01 18:00:00+00:00,0.0
2024-05-01 19:00:00+00:00,0.0
2024-05-02 13:00:00+00:00,0.0
2024-05-02 14:00:00+00:00,0.0
2024-05-02 15:00:00+00:00,0.0
2024-05-02 16:00:00+00:00,0.0
2024-05-02 17:00:00+00:00,0.0
2024-05-02 18:00:00+00:00,0.0
2024-05-02 19:00:00+00:00,0.0
2024-05-03 13:00:00+00:00,0.0
2024-05-03 14:00:00+00:00,0.0
2024-05-03 15:00:00+00:00,0.0
2024-05-03 16:00:00+00:00,0.0
2024-05-03 17:00:00+00:00,0.0
2024-05-03 18:00:00+00:00,0.0
2024-05-03 19:00:00+00:00,0.0
2024-05-06 13:00:00+00:00,0.0
2024-05-06 14:00:00+00:00,0.0
2024-05-06 15:00:00+00:00,0.0
2024-05-06 16:00:00+00:00,0.0
2024-05-06 17:00:00+00:00,0.0
2024-05-06 18:00:00+00:00,0.0
2024-05-06 19:00:00+00:00,0.0
2024-05-07 13:00:00+00:00,0.0
2024-05-07 14:00:00+00:00,0.0
2024-05-07 15:00:00+00:00,0.0
2024-05-07 16:00:00+00:00,0.0
2024-05-07 17:00:00+00:00,0.0
2024-05-07 18:00:00+00:00,0.0
2024-05-07 19:00:00+00:00,0.0
2024-05-08 13:00:00+00:00,0.0
2024-05-08 14:00:00+00:00,0.0
2024-05-08 15:00:00+00:00,0.0
2024-05-08 16:00:00+00:00,0.0
2024-05-08 17:00:00+00:00,0.0
2024-05-08 18:00:00+00:00,0.0
2024-05-08 19:00:00+00:00,0.0
2024-05-09 13:00:00+00:00,0.0
2024-05-09 14:00:00+00:00,0.0
2024-05-09 15:00:00+00:00,0.0
2024-05-09 16:00:00+00:00,0.0
2024-05-09 17:00:00+00:00,0.0
2024-05-09 18:00:00+00:00,0.0
2024-05-09 19:00:00+00:00,0.0
2024-05-10 13:00:00+00:00,0.0
2024-05-10 14:00:00+00:00,0.0
2024-05-10 15:00:00+00:00,0.0
2024-05-10 16:00:00+00:00,0.0
2024-05-10 17:00:00+00:00,0.0
2024-05-10 18:00:00+00:00,0.0
2024-05-10 19:00:00+00:00,0.0
2024-05-13 13:00:00+00:00,0.0
2024-05-13 14:00:00+00:00,0.0
2024-05-13 15:00:00+00:00,0.0
2024-05-13 16:00:00+00:00,0.0
2024-05-13 17:00:00+00:00,0.0
2024-05-13 18:00:00+00:00,0.0
2024-05-13 19:00:00+00:00,0.0
2024-05-14 13:00:00+00:00,0.0
2024-05-14 14:00:00+00:00,0.0
2024-05-14 15:00:00+00:00,0.0
2024-05-14 16:00:00+00:00,0.0
2024-05-14 17:00:00+00:00,0.0
2024-05-14 18:00:00+00:00,0.0
2024-05-14 19:00:00+00:00,0.0
2024-05-15 13:00:00+00:00,0.0
2024-05-15 14:00:00+00:00,0.0
2024-05-15 15:00:00+00:00,0.0
2024-05-15 16:00:00+00:00,0.0
2024-05-15 17:00:00+00:00,0.0
2024-05-15 18:00:00+00:00,0.0
2024-05-15 19:00:00+00:00,0.0
2024-05-16 13:00:00+00:00,0.0
2024-05-16 14:00:00+00:00,0.0
2024-05-16 15:00:00+00:00,0.0
2024-05-16 16:00:00+00:00,0.0
2024-05-16 17:00:00+00:00,0.0
2024-05-16 18:00:00+00:00,0.0
2024-05-16 19:00:00+00:00,0.0
2024-05-17 13:00:00+00:00,0.0
2024-05-17 14:00:00+00:00,0.0
2024-05-17 15:00:00+00:00,0.0
2024-05-17 16:00:00+00:00,0.0
2024-05-17 17:00:00+00:00,0.0
2024-05-17 18:00:00+00:00,0.0
2024-05-17 19:00:00+00:00,0.0
2024-05-20 13:00:00+00:00,0.0
2024-05-20 14:00:00+00:00,0.0
2024-05-20 15:00:00+00:00,0.0
2024-05-20 16:00:00+00:00,0.0
2024-05-20 17:00:00+00:00,0.0
2024-05-20 18:00:00+00:00,0.0
2024-05-20 19:00:00+00:00,0.0
2024-05-21 13:00:00+00:00,0.0
2024-05-21 14:00:00+00:00,0.0
2024-05-21 15:00:00+00:00,0.0
2024-05-21 16:00:00+00:00,0.0
2024-05-21 17:00:00+00:00,0.0
2024-05-21 18:00:00+00:00,0.0
2024-05-21 19:00:00+00:00,0.0
2024-05-22 13:00:00+00:00,0.0
2024-05-22 14:00:00+00:00,0.0
2024-05-22 15:00:00+00:00,0.0
2024-05-22 16:00:00+00:00,0.0
2024-05-22 17:00:00+00:00,0.0
2024-05-22 18:00:00+00:00,0.0
2024-05-22 19:00:00+00:00,0.0
2024-05-23 13:00:00+00:00,0.0
2024-05-23 14:00:00+00:00,0.0
2024-05-23 15:00:00+00:00,0.0
2024-05-23 16:00:00+00:00,0.0
2024-05-23 17:00:00+00:00,0.0
2024-05-23 18:00:00+00:00,0.0
2024-05-23 19:00:00+00:00,0.0
2024-05-24 13:00:00+00:00,0.0
2024-05-24 14:00:00+00:00,0.0
2024-05-24 15:00:00+00:00,0.0
2024-05-24 16:00:00+00:00,0.0
2024-05-24 17:00:00+00:00,0.0
2024-05-24 18:00:00+00:00,0.0
2024-05-24 19:00:00+00:00,0.0
2024-05-28 13:00:00+00:00,0.0
2024-05-28 14:00:00+00:00,0.0
2024-05-28 15:00:00+00:00,0.0
2024-05-28 16:00:00+00:00,0.0
2024-05-28 17:00:00+00:00,0.0
2024-05-28 18:00:00+00:00,0.0
2024-05-28 19:00:00+00:00,0.0
2024-05-29 13:00:00+00:00,0.0
2024-05-29 14:00:00+00:00,0.0
2024-05-29 15:00:00+00:00,0.0
2024-05-29 16:00:00+00:00,0.0
2024-05-29 17:00:00+00:00,0.0
2024-05-29 18:00:00+00:00,0.0
2024-05-29 19:00:00+00:00,0.0
2024-05-30 13:00:00+00:00,0.0
2024-05-30 14:00:00+00:00,0.0
2024-05-30 15:00:00+00:00,0.0
2024-05-30 16:00:00+00:00,0.0
2024-05-30 17:00:00+00:00,0.0
2024-05-30 18:00:00+00:00,0.0
2024-05-30 19:00:00+00:00,0.0
2024-05-31 13:00:00+00:00,0.0
2024-05-31 14:00:00+00:00,0.0
2024-05-31 15:00:00+00:00,0.0
2024-05-31 16:00:00+00:00,0.0
2024-05-31 17:00:00+00:00,0.0
2024-05-31 18:00:00+00:00,0.0
2024-05-31 19:00:00+00:00,0.0
2024-06-03 13:00:00+00:00,0.0
2024-06-03 14:00:00+00:00,0.0
2024-06-03 15:00:00+00:00,0.0
2024-06-03 16:00:00+00:00,0.0
2024-06-03 17:00:00+00:00,0.0
2024-06-03 18:00:00+00:00,0.0
2024-06-03 19:00:00+00:00,0.0
2024-06-04 13:00:00+00:00,0.0
2024-06-04 14:00:00+00:00,0.0
2024-06-04 15:00:00+00:00,0.0
2024-06-04 16:00:00+00:00,0.0
2024-06-04 17:00:00+00:00,0.0
2024-06-04 18:00:00+00:00,0.0
2024-06-04 19:00:00+00:00,0.0
2024-06-05 13:00:00+00:00,0.0
2024-06-05 14:00:00+00:00,0.0
2024-06-05 15:00:00+00:00,0.0
2024-06-05 16:00:00+00:00,0.0
2024-06-05 17:00:00+00:00,0.0
2024-06-05 18:00:00+00:00,0.0
2024-06-05 19:00:00+00:00,0.0
2024-06-06 13:00:00+00:00,0.0
2024-06-06 14:00:00+00:00,0.0
2024-06-06 15:00:00+00:00,0.0
2024-06-06 16:00:00+00:00,0.0
2024-06-06 17:00:00+00:00,0.0
2024-06-06 18:00:00+00:00,0.0
2024-06-06 19:00:00+00:00,0.0
2024-06-07 13:00:00+00:00,0.0
2024-06-07 14:00:00+00:00,0.0
2024-06-07 15:00:00+00:00,0.0
2024-06-07 16:00:00+00:00,0.0
2024-06-07 17:00:00+00:00,0.0
2024-06-07 18:00:00+00:00,0.0
2024-06-07 19:00:00+00:00,0.0
2024-06-10 13:00:00+00:00,0.0
2024-06-10 14:00:00+00:00,0.0
2024-06-10 15:00:00+00:00,0.0
2024-06-10 16:00:00+00:00,0.0
2024-06-10 17:00:00+00:00,0.0
2024-06-10 18:00:00+00:00,0.0
2024-06-10 19:00:00+00:00,0.0
2024-06-11 13:00:00+00:00,0.0
2024-06-11 14:00:00+00:00,0.0
2024-06-11 15:00:00+00:00,0.0
2024-06-11 16:00:00+00:00,0.0
2024-06-11 17:00:00+00:00,0.0
2024-06-11 18:00:00+00:00,0.0
2024-06-11 19:00:00+00:00,0.0
2024-06-12 13:00:00+00:00,0.0
2024-06-12 14:00:00+00:00,0.0
2024-06-12 15:00:00+00:00,0.0
2024-06-12 16:00:00+00:00,0.0
2024-06-12 17:00:00+00:00,0.0
2024-06-12 18:00:00+00:00,0.0
2024-06-12 19:00:00+00:00,0.0
2024-06-13 13:00:00+00:00,0.0
2024-06-13 14:00:00+00:00,0.0
2024-06-13 15:00:00+00:00,0.0
2024-06-13 16:00:00+00:00,0.0
2024-06-13 17:00:00+00:00,0.0
2024-06-13 18:00:00+00:00,0.0
2024-06-13 19:00:00+00:00,0.0
2024-06-14 13:00:00+00:00,0.0
2024-06-14 14:00:00+00:00,0.0
2024-06-14 15:00:00+00:00,0.0
2024-06-14 16:00:00+00:00,0.0
2024-06-14 17:00:00+00:00,0.0
2024-06-14 18:00:00+00:00,0.0
2024-06-14 19:00:00+00:00,0.0
2024-06-17 13:00:00+00:00,0.0
2024-06-17 14:00:00+00:00,0.0
2024-06-17 15:00:00+00:00,0.0
2024-06-17 16:00:00+00:00,0.0
2024-06-17 17:00:00+00:00,0.0
2024-06-17 18:00:00+00:00,0.0
2024-06-17 19:00:00+00:00,0.0
2024-06-18 13:00:00+00:00,0.0
2024-06-18 14:00:00+00:00,0.0
2024-06-18 15:00:00+00:00,0.0
2024-06-18 16:00:00+00:00,0.0
2024-06-18 17:00:00+00:00,0.0
2024-06-18 18:00:00+00:00,0.0
2024-06-18 19:00:00+00:00,0.0
2024-06-20 13:00:00+00:00,0.0
2024-06-20 14:00:00+00:00,0.0
2024-06-20 15:00:00+00:00,0.0
2024-06-20 16:00:00+00:00,0.0
2024-06-20 17:00:00+00:00,0.0
2024-06-20 18:00:00+00:00,0.0
2024-06-20 19:00:00+00:00,0.0
2024-06-21 13:00:00+00:00,0.0
2024-06-21 14:00:00+00:00,0.0
2024-06-21 15:00:00+00:00,0.0
2024-06-21 16:00:00+00:00,0.0
2024-06-21 17:00:00+00:00,0.0
2024-06-21 18:00:00+00:00,0.0
2024-06-21 19:00:00+00:00,0.0
2024-06-24 13:00:00+00:00,0.0
2024-06-24 14:00:00+00:00,0.0
2024-06-24 15:00:00+00:00,0.0
2024-06-24 16:00:00+00:00,0.0
2024-06-24 17:00:00+00:00,0.0
2024-06-24 18:00:00+00:00,0.0
2024-06-24 19:00:00+00:00,0.0
2024-06-25 13:00:00+00:00,0.0
2024-06-25 14:00:00+00:00,0.0
2024-06-25 15:00:00+00:00,0.0
2024-06-25 16:00:00+00:00,0.0
2024-06-25 17:00:00+00:00,0.0
2024-06-25 18:00:00+00:00,0.0
2024-06-25 19:00:00+00:00,0.0
2024-06-26 13:00:00+00:00,0.0
2024-06-26 14:00:00+00:00,0.0
2024-06-26 15:00:00+00:00,0.0
2024-06-26 16:00:00+00:00,0.0
2024-06-26 17:00:00+00:00,0.0
2024-06-26 18:00:00+00:00,0.0
2024-06-26 19:00:00+00:00,0.0
2024-06-27 13:00:00+00:00,0.0
2024-06-27 14:00:00+00:00,0.0
2024-06-27 15:00:00+00:00,0.0
2024-06-27 16:00:00+00:00,0.0
2024-06-27 17:00:00+00:00,0.0
2024-06-27 18:00:00+00:00,0.0
2024-06-27 19:00:00+00:00,0.0
2024-06-28 13:00:00+00:00,0.0
2024-06-28 14:00:00+00:00,0.0
2024-06-28 15:00:00+00:00,0.0
2024-06-28 16:00:00+00:00,0.0
2024-06-28 17:00:00+00:00,0.0
2024-06-28 18:00:00+00:00,0.0
2024-06-28 19:00:00+00:00,0.0
2024-07-01 13:00:00+00:00,0.0
2024-07-01 14:00:00+00:00,0.0
2024-07-01 15:00:00+00:00,0.0
2024-07-01 16:00:00+00:00,0.0
2024-07-01 17:00:00+00:00,0.0
2024-07-01 18:00:00+00:00,0.0
2024-07-01 19:00:00+00:00,0.0
2024-07-02 13:00:00+00:00,0.0
2024-07-02 14:00:00+00:00,0.0
2024-07-02 15:00:00+00:00,0.0
2024-07-02 16:00:00+00:00,0.0
2024-07-02 17:00:00+00:00,0.0
2024-07-02 18:00:00+00:00,0.0
2024-07-02 19:00:00+00:00,0.0
2024-07-03 13:00:00+00:00,0.0
2024-07-03 14:00:00+00:00,0.0
2024-07-03 15:00:00+00:00,0.0
2024-07-05 13:00:00+00:00,0.0
2024-07-05 14:00:00+00:00,0.0
2024-07-05 15:00:00+00:00,0.0
2024-07-05 16:00:00+00:00,0.0
2024-07-05 17:00:00+00:00,0.0
2024-07-05 18:00:00+00:00,0.0
2024-07-05 19:00:00+00:00,0.0
2024-07-08 13:00:00+00:00,0.0
2024-07-08 14:00:00+00:00,0.0
2024-07-08 15:00:00+00:00,0.0
2024-07-08 16:00:00+00:00,0.0
2024-07-08 17:00:00+00:00,0.0
2024-07-08 18:00:00+00:00,0.0
2024-07-08 19:00:00+00:00,0.0
2024-07-09 13:00:00+00:00,0.0
2024-07-09 14:00:00+00:00,0.0
2024-07-09 15:00:00+00:00,0.0
2024-07-09 16:00:00+00:00,0.0
2024-07-09 17:00:00+00:00,0.0
2024-07-09 18:00:00+00:00,0.0
2024-07-09 19:00:00+00:00,0.0
2024-07-10 13:00:00+00:00,0.0
2024-07-10 14:00:00+00:00,0.0
2024-07-10 15:00:00+00:00,0.0
2024-07-10 16:00:00+00:00,0.0
2024-07-10 17:00:00+00:00,0.0
2024-07-10 18:00:00+00:00,0.0
2024-07-10 19:00:00+00:00,0.0
2024-07-11 13:00:00+00:00,0.0
2024-07-11 14:00:00+00:00,0.0
2024-07-11 15:00:00+00:00,0.0
2024-07-11 16:00:00+00:00,0.0
2024-07-11 17:00:00+00:00,0.0
2024-07-11 18:00:00+00:00,0.0
2024-07-11 19:00:00+00:00,0.0
2024-07-12 13:00:00+00:00,0.0
2024-07-12 14:00:00+00:00,0.0
2024-07-12 15:00:00+00:00,0.0
2024-07-12 16:00:00+00:00,0.0
2024-07-12 17:00:00+00:00,0.0
2024-07-12 18:00:00+00:00,0.0
2024-07-12 19:00:00+00:00,0.0
2024-07-15 13:00:00+00:00,0.0
2024-07-15 14:00:00+00:00,0.0
2024-07-15 15:00:00+00:00,0.0
2024-07-15 16:00:00+00:00,0.0
2024-07-15 17:00:00+00:00,0.0
2024-07-15 18:00:00+00:00,0.0
2024-07-15 19:00:00+00:00,0.0
2024-07-16 13:00:00+00:00,0.0
2024-07-16 14:00:00+00:00,0.0
2024-07-16 15:00:00+00:00,0.0
2024-07-16 16:00:00+00:00,0.0
2024-07-16 17:00:00+00:00,0.0
2024-07-16 18:00:00+00:00,0.0
2024-07-16 19:00:00+00:00,0.0
2024-07-17 13:00:00+00:00,0.0
2024-07-17 14:00:00+00:00,0.0
2024-07-17 15:00:00+00:00,0.0
2024-07-17 16:00:00+00:00,0.0
2024-07-17 17:00:00+00:00,0.0
2024-07-17 18:00:00+00:00,0.0
2024-07-17 19:00:00+00:00,0.0
2024-07-18 13:00:00+00:00,0.0
2024-07-18 14:00:00+00:00,0.0
2024-07-18 15:00:00+00:00,0.0
2024-07-18 16:00:00+00:00,0.0
2024-07-18 17:00:00+00:00,0.0
2024-07-18 18:00:00+00:00,0.0
2024-07-18 19:00:00+00:00,0.0
2024-07-19 13:00:00+00:00,0.0
2024-07-19 14:00:00+00:00,0.0
2024-07-19 15:00:00+00:00,0.0
2024-07-19 16:00:00+00:00,0.0
2024-07-19 17:00:00+00:00,0.0
2024-07-19 18:00:00+00:00,0.0
2024-07-19 19:00:00+00:00,0.0
2024-07-22 13:00:00+00:00,0.0
2024-07-22 14:00:00+00:00,0.0
2024-07-22 15:00:00+00:00,0.0
2024-07-22 16:00:00+00:00,0.0
2024-07-22 17:00:00+00:00,0.0
2024-07-22 18:00:00+00:00,0.0
2024-07-22 19:00:00+00:00,0.0
2024-07-23 13:00:00+00:00,0.0
2024-07-23 14:00:00+00:00,0.0
2024-07-23 15:00:00+00:00,0.0
2024-07-23 16:00:00+00:00,0.0
2024-07-23 17:00:00+00:00,0.0
2024-07-23 18:00:00+00:00,0.0
2024-07-23 19:00:00+00:00,0.0
2024-07-24 13:00:00+00:00,0.0
2024-07-24 14:00:00+00:00,0.0
2024-07-24 15:00:00+00:00,0.0
2024-07-24 16:00:00+00:00,0.0
2024-07-24 17:00:00+00:00,0.0
2024-07-24 18:00:00+00:00,0.0
2024-07-24 19:00:00+00:00,0.0
2024-07-25 13:00:00+00:00,0.0
2024-07-25 14:00:00+00:00,0.0
2024-07-25 15:00:00+00:00,0.0
2024-07-25 16:00:00+00:00,0.0
2024-07-25 17:00:00+00:00,0.0
2024-07-25 18:00:00+00:00,0.0
2024-07-25 19:00:00+00:00,0.0
2024-07-26 13:00:00+00:00,0.0
2024-07-26 14:00:00+00:00,0.0
2024-07-26 15:00:00+00:00,0.0
2024-07-26 16:00:00+00:00,0.0
2024-07-26 17:00:00+00:00,0.0
2024-07-26 18:00:00+00:00,0.0
2024-07-26 19:00:00+00:00,0.0
2024-07-29 13:00:00+00:00,0.0
2024-07-29 14:00:00+00:00,0.0
2024-07-29 15:00:00+00:00,0.0
2024-07-29 16:00:00+00:00,0.0
2024-07-29 17:00:00+00:00,0.0
2024-07-29 18:00:00+00:00,0.0
2024-07-29 19:00:00+00:00,0.0
2024-07-30 13:00:00+00:00,0.0
2024-07-30 14:00:00+00:00,0.0
2024-07-30 15:00:00+00:00,0.0
2024-07-30 16:00:00+00:00,0.0
2024-07-30 17:00:00+00:00,0.0
2024-07-30 18:00:00+00:00,0.0
2024-07-30 19:00:00+00:00,0.0
2024-07-31 13:00:00+00:00,0.0
2024-07-31 14:00:00+00:00,0.0
2024-07-31 15:00:00+00:00,0.0
2024-07-31 16:00:00+00:00,0.0
2024-07-31 17:00:00+00:00,0.0
2024-07-31 18:00:00+00:00,0.0
2024-07-31 19:00:00+00:00,0.0
2024-08-01 13:00:00+00:00,0.0
2024-08-01 14:00:00+00:00,0.0
2024-08-01 15:00:00+00:00,0.0
2024-08-01 16:00:00+00:00,0.0
2024-08-01 17:00:00+00:00,0.0
2024-08-01 18:00:00+00:00,0.0
2024-08-01 19:00:00+00:00,0.0
2024-08-02 13:00:00+00:00,0.0
2024-08-02 14:00:00+00:00,0.0
2024-08-02 15:00:00+00:00,0.0
2024-08-02 16:00:00+00:00,0.0
2024-08-02 17:00:00+00:00,0.0
2024-08-02 18:00:00+00:00,0.0
2024-08-02 19:00:00+00:00,0.0
2024-08-05 13:00:00+00:00,0.0
2024-08-05 14:00:00+00:00,0.0
2024-08-05 15:00:00+00:00,0.0
2024-08-05 16:00:00+00:00,0.0
2024-08-05 17:00:00+00:00,0.0
2024-08-05 18:00:00+00:00,0.0
2024-08-05 19:00:00+00:00,0.0
2024-08-06 13:00:00+00:00,0.0
2024-08-06 14:00:00+00:00,0.0
2024-08-06 15:00:00+00:00,0.0
2024-08-06 16:00:00+00:00,0.0
2024-08-06 17:00:00+00:00,0.0
2024-08-06 18:00:00+00:00,0.0
2024-08-06 19:00:00+00:00,0.0
2024-08-07 13:00:00+00:00,0.0
2024-08-07 14:00:00+00:00,0.0
2024-08-07 15:00:00+00:00,0.0
2024-08-07 16:00:00+00:00,0.0
2024-08-07 17:00:00+00:00,0.0
2024-08-07 18:00:00+00:00,0.0
2024-08-07 19:00:00+00:00,0.0
2024-08-08 13:00:00+00:00,0.0
2024-08-08 14:00:00+00:00,0.0
2024-08-08 15:00:00+00:00,0.0
2024-08-08 16:00:00+00:00,0.0
2024-08-08 17:00:00+00:00,0.0
2024-08-08 18:00:00+00:00,0.0
2024-08-08 19:00:00+00:00,0.0
2024-08-09 13:00:00+00:00,0.0
2024-08-09 14:00:00+00:00,0.0
2024-08-09 15:00:00+00:00,0.0
2024-08-09 16:00:00+00:00,0.0
2024-08-09 17:00:00+00:00,0.0
2024-08-09 18:00:00+00:00,0.0
2024-08-09 19:00:00+00:00,0.0
2024-08-12 13:00:00+00:00,0.0
2024-08-12 14:00:00+00:00,0.0
2024-08-12 15:00:00+00:00,0.0
2024-08-12 16:00:00+00:00,0.0
2024-08-12 17:00:00+00:00,0.0
2024-08-12 18:00:00+00:00,0.0
2024-08-12 19:00:00+00:00,0.0
2024-08-13 13:00:00+00:00,0.0
2024-08-13 14:00:00+00:00,0.0
2024-08-13 15:00:00+00:00,0.0
2024-08-13 16:00:00+00:00,0.0
2024-08-13 17:00:00+00:00,0.0
2024-08-13 18:00:00+00:00,0.0
2024-08-13 19:00:00+00:00,0.0
2024-08-14 13:00:00+00:00,0.0
2024-08-14 14:00:00+00:00,0.0
2024-08-14 15:00:00+00:00,0.0
2024-08-14 16:00:00+00:00,0.0
2024-08-14 17:00:00+00:00,0.0
2024-08-14 18:00:00+00:00,0.0
2024-08-14 19:00:00+00:00,0.0
2024-08-15 13:00:00+00:00,0.0
2024-08-15 14:00:00+00:00,0.0
2024-08-15 15:00:00+00:00,0.0
2024-08-15 16:00:00+00:00,0.0
2024-08-15 17:00:00+00:00,0.0
2024-08-15 18:00:00+00:00,0.0
2024-08-15 19:00:00+00:00,0.0
2024-08-16 13:00:00+00:00,0.0
2024-08-16 14:00:00+00:00,0.0
2024-08-16 15:00:00+00:00,0.0
2024-08-16 16:00:00+00:00,0.0
2024-08-16 17:00:00+00:00,0.0
2024-08-16 18:00:00+00:00,0.0
2024-08-16 19:00:00+00:00,0.0
2024-08-19 13:00:00+00:00,0.0
2024-08-19 14:00:00+00:00,0.0
2024-08-19 15:00:00+00:00,0.0
2024-08-19 16:00:00+00:00,0.0
2024-08-19 17:00:00+00:00,0.0
2024-08-19 18:00:00+00:00,0.0
2024-08-19 19:00:00+00:00,0.0
2024-08-20 13:00:00+00:00,0.0
2024-08-20 14:00:00+00:00,0.0
2024-08-20 15:00:00+00:00,0.0
2024-08-20 16:00:00+00:00,0.0
2024-08-20 17:00:00+00:00,0.0
2024-08-20 18:00:00+00:00,0.0
2024-08-20 19:00:00+00:00,0.0
2024-08-21 13:00:00+00:00,0.0
2024-08-21 14:00:00+00:00,0.0
2024-08-21 15:00:00+00:00,0.0
2024-08-21 16:00:00+00:00,0.0
2024-08-21 17:00:00+00:00,0.0
2024-08-21 18:00:00+00:00,0.0
2024-08-21 19:00:00+00:00,0.0
2024-08-22 13:00:00+00:00,0.0
2024-08-22 14:00:00+00:00,0.0
2024-08-22 15:00:00+00:00,0.0
2024-08-22 16:00:00+00:00,0.0
2024-08-22 17:00:00+00:00,0.0
2024-08-22 18:00:00+00:00,0.0
2024-08-22 19:00:00+00:00,0.0
2024-08-23 13:00:00+00:00,0.0
2024-08-23 14:00:00+00:00,0.0
2024-08-23 15:00:00+00:00,0.0
2024-08-23 16:00:00+00:00,0.0
2024-08-23 17:00:00+00:00,0.0
2024-08-23 18:00:00+00:00,0.0
2024-08-23 19:00:00+00:00,0.0
2024-08-26 13:00:00+00:00,0.0
2024-08-26 14:00:00+00:00,0.0
2024-08-26 15:00:00+00:00,0.0
2024-08-26 16:00:00+00:00,0.0
2024-08-26 17:00:00+00:00,0.0
2024-08-26 18:00:00+00:00,0.0
2024-08-26 19:00:00+00:00,0.0
2024-08-27 13:00:00+00:00,0.0
2024-08-27 14:00:00+00:00,0.0
2024-08-27 15:00:00+00:00,0.0
2024-08-27 16:00:00+00:00,0.0
2024-08-27 17:00:00+00:00,0.0
2024-08-27 18:00:00+00:00,0.0
2024-08-27 19:00:00+00:00,0.0
2024-08-28 13:00:00+00:00,0.0
2024-08-28 14:00:00+00:00,0.0
2024-08-28 15:00:00+00:00,0.0
2024-08-28 16:00:00+00:00,0.0
2024-08-28 17:00:00+00:00,0.0
2024-08-28 18:00:00+00:00,0.0
2024-08-28 19:00:00+00:00,0.0
2024-08-29 13:00:00+00:00,0.0
2024-08-29 14:00:00+00:00,0.0
2024-08-29 15:00:00+00:00,0.0
2024-08-29 16:00:00+00:00,0.0
2024-08-29 17:00:00+00:00,0.0
2024-08-29 18:00:00+00:00,0.0
2024-08-29 19:00:00+00:00,0.0
2024-08-30 13:00:00+00:00,0.0
2024-08-30 14:00:00+00:00,0.0
2024-08-30 15:00:00+00:00,0.0
2024-08-30 16:00:00+00:00,0.0
2024-08-30 17:00:00+00:00,0.0
2024-08-30 18:00:00+00:00,0.0
2024-08-30 19:00:00+00:00,0.0
2024-09-03 13:00:00+00:00,0.0
2024-09-03 14:00:00+00:00,0.0
2024-09-03 15:00:00+00:00,0.0
2024-09-03 16:00:00+00:00,0.0
2024-09-03 17:00:00+00:00,0.0
2024-09-03 18:00:00+00:00,0.0
2024-09-03 19:00:00+00:00,0.0
2024-09-04 13:00:00+00:00,0.0
2024-09-04 14:00:00+00:00,0.0
2024-09-04 15:00:00+00:00,0.0
2024-09-04 16:00:00+00:00,0.0
2024-09-04 17:00:00+00:00,0.0
2024-09-04 18:00:00+00:00,0.0
2024-09-04 19:00:00+00:00,0.0
2024-09-05 13:00:00+00:00,0.0
2024-09-05 14:00:00+00:00,0.0
2024-09-05 15:00:00+00:00,0.0
2024-09-05 16:00:00+00:00,0.0
2024-09-05 17:00:00+00:00,0.0
2024-09-05 18:00:00+00:00,0.0
2024-09-05 19:00:00+00:00,0.0
2024-09-06 13:00:00+00:00,0.0
2024-09-06 14:00:00+00:00,0.0
2024-09-06 15:00:00+00:00,0.0
2024-09-06 16:00:00+00:00,0.0
2024-09-06 17:00:00+00:00,0.0
2024-09-06 18:00:00+00:00,0.0
2024-09-06 19:00:00+00:00,0.0
2024-09-09 13:00:00+00:00,0.0
2024-09-09 14:00:00+00:00,0.0
2024-09-09 15:00:00+00:00,0.0
2024-09-09 16:00:00+00:00,0.0
2024-09-09 17:00:00+00:00,0.0
2024-09-09 18:00:00+00:00,0.0
2024-09-09 19:00:00+00:00,0.0
2024-09-10 13:00:00+00:00,0.0
2024-09-10 14:00:00+00:00,0.0
2024-09-10 15:00:00+00:00,0.0
2024-09-10 16:00:00+00:00,0.0
2024-09-10 17:00:00+00:00,0.0
2024-09-10 18:00:00+00:00,0.0
2024-09-10 19:00:00+00:00,0.0
2024-09-11 13:00:00+00:00,0.0
2024-09-11 14:00:00+00:00,0.0
2024-09-11 15:00:00+00:00,0.0
2024-09-11 16:00:00+00:00,0.0
2024-09-11 17:00:00+00:00,0.0
2024-09-11 18:00:00+00:00,0.0
2024-09-11 19:00:00+00:00,0.0
2024-09-12 13:00:00+00:00,0.0
2024-09-12 14:00:00+00:00,0.0
2024-09-12 15:00:00+00:00,0.0
2024-09-12 16:00:00+00:00,0.0
2024-09-12 17:00:00+00:00,0.0
2024-09-12 18:00:00+00:00,0.0
2024-09-12 19:00:00+00:00,0.0
2024-09-13 13:00:00+00:00,0.0
2024-09-13 14:00:00+00:00,0.0
2024-09-13 15:00:00+00:00,0.0
2024-09-13 16:00:00+00:00,0.0
2024-09-13 17:00:00+00:00,0.0
2024-09-13 18:00:00+00:00,0.0
2024-09-13 19:00:00+00:00,0.0
2024-09-16 13:00:00+00:00,0.0
2024-09-16 14:00:00+00:00,0.0
2024-09-16 15:00:00+00:00,0.0
2024-09-16 16:00:00+00:00,0.0
2024-09-16 17:00:00+00:00,0.0
2024-09-16 18:00:00+00:00,0.0
2024-09-16 19:00:00+00:00,0.0
2024-09-17 13:00:00+00:00,0.0
2024-09-17 14:00:00+00:00,0.0
2024-09-17 15:00:00+00:00,0.0
2024-09-17 16:00:00+00:00,0.0
2024-09-17 17:00:00+00:00,0.0
2024-09-17 18:00:00+00:00,0.0
2024-09-17 19:00:00+00:00,0.0
2024-09-18 13:00:00+00:00,0.0
2024-09-18 14:00:00+00:00,0.0
2024-09-18 15:00:00+00:00,0.0
2024-09-18 16:00:00+00:00,0.0
2024-09-18 17:00:00+00:00,0.0
2024-09-18 18:00:00+00:00,0.0
2024-09-18 19:00:00+00:00,0.0
2024-09-19 13:00:00+00:00,0.0
2024-09-19 14:00:00+00:00,0.0
2024-09-19 15:00:00+00:00,0.0
2024-09-19 16:00:00+00:00,0.0
2024-09-19 17:00:00+00:00,0.0
2024-09-19 18:00:00+00:00,0.0
2024-09-19 19:00:00+00:00,0.0
2024-09-20 13:00:00+00:00,0.0
2024-09-20 14:00:00+00:00,0.0
2024-09-20 15:00:00+00:00,0.0
2024-09-20 16:00:00+00:00,0.0
2024-09-20 17:00:00+00:00,0.0
2024-09-20 18:00:00+00:00,0.0
2024-09-20 19:00:00+00:00,0.0
2024-09-23 13:00:00+00:00,0.0
2024-09-23 14:00:00+00:00,0.0
2024-09-23 15:00:00+00:00,0.0
2024-09-23 16:00:00+00:00,0.0
2024-09-23 17:00:00+00:00,0.0
2024-09-23 18:00:00+00:00,0.0
2024-09-23 19:00:00+00:00,0.0
2024-09-24 13:00:00+00:00,0.0
2024-09-24 14:00:00+00:00,0.0
2024-09-24 15:00:00+00:00,0.0
2024-09-24 16:00:00+00:00,0.0
2024-09-24 17:00:00+00:00,0.0
2024-09-24 18:00:00+00:00,0.0
2024-09-24 19:00:00+00:00,0.0
2024-09-25 13:00:00+00:00,0.0
2024-09-25 14:00:00+00:00,0.0
2024-09-25 15:00:00+00:00,0.0
2024-09-25 16:00:00+00:00,0.0
2024-09-25 17:00:00+00:00,0.0
2024-09-25 18:00:00+00:00,0.0
2024-09-25 19:00:00+00:00,0.0
2024-09-26 13:00:00+00:00,0.0
2024-09-26 14:00:00+00:00,0.0
2024-09-26 15:00:00+00:00,0.0
2024-09-26 16:00:00+00:00,0.0
2024-09-26 17:00:00+00:00,0.0
2024-09-26 18:00:00+00:00,0.0
2024-09-26 19:00:00+00:00,0.0
2024-09-27 13:00:00+00:00,0.0
2024-09-27 14:00:00+00:00,0.0
2024-09-27 15:00:00+00:00,0.0
2024-09-27 16:00:00+00:00,0.0
2024-09-27 17:00:00+00:00,0.0
2024-09-27 18:00:00+00:00,0.0
2024-09-27 19:00:00+00:00,0.0
2024-09-30 13:00:00+00:00,0.0
2024-09-30 14:00:00+00:00,0.0
2024-09-30 15:00:00+00:00,0.0
2024-09-30 16:00:00+00:00,0.0
2024-09-30 17:00:00+00:00,0.0
2024-09-30 18:00:00+00:00,0.0
2024-09-30 19:00:00+00:00,0.0
2024-10-01 13:00:00+00:00,0.0
2024-10-01 14:00:00+00:00,0.0
2024-10-01 15:00:00+00:00,0.0
2024-10-01 16:00:00+00:00,0.0
2024-10-01 17:00:00+00:00,0.0
2024-10-01 18:00:00+00:00,0.0
2024-10-01 19:00:00+00:00,0.0
2024-10-02 13:00:00+00:00,0.0
2024-10-02 14:00:00+00:00,0.0
2024-10-02 15:00:00+00:00,0.0
2024-10-02 16:00:00+00:00,0.0
2024-10-02 17:00:00+00:00,0.0
2024-10-02 18:00:00+00:00,0.0
2024-10-02 19:00:00+00:00,0.0
2024-10-03 13:00:00+00:00,0.0
2024-10-03 14:00:00+00:00,0.0
2024-10-03 15:00:00+00:00,0.0
2024-10-03 16:00:00+00:00,0.0
2024-10-03 17:00:00+00:00,0.0
2024-10-03 18:00:00+00:00,0.0
2024-10-03 19:00:00+00:00,0.0
2024-10-04 13:00:00+00:00,0.0
2024-10-04 14:00:00+00:00,0.0
2024-10-04 15:00:00+00:00,0.0
2024-10-04 16:00:00+00:00,0.0
2024-10-04 17:00:00+00:00,0.0
2024-10-04 18:00:00+00:00,0.0
2024-10-04 19:00:00+00:00,0.0
2024-10-07 13:00:00+00:00,-73.85615432571882
2024-10-07 14:00:00+00:00,-100.93323368668128
2024-10-07 15:00:00+00:00,-112.84102352784394
2024-10-07 16:00:00+00:00,-109.62446042903066
2024-10-07 17:00:00+00:00,-84.46216995609511
2024-10-07 18:00:00+00:00,-90.24440904832849
2024-10-07 19:00:00+00:00,-52.04814382785002
2024-10-08 13:00:00+00:00,133.15031962070626
2024-10-08 14:00:00+00:00,123.3066270434141
2024-10-08 15:00:00+00:00,138.9128785340729
2024-10-08 16:00:00+00:00,116.75347563064781
2024-10-08 17:00:00+00:00,124.26184569054811
2024-10-08 18:00:00+00:00,111.16575582828376
2024-10-08 19:00:00+00:00,100.06040950134947
2024-10-09 13:00:00+00:00,126.91262732623173
2024-10-09 14:00:00+00:00,126.98734364918542
2024-10-09 15:00:00+00:00,111.49626023673171
2024-10-09 16:00:00+00:00,104.35508805703077
2024-10-09 17:00:00+00:00,102.89731074829093
2024-10-09 18:00:00+00:00,80.25943546144205
2024-10-09 19:00:00+00:00,98.72663668914603
2024-10-10 13:00:00+00:00,65.12161181656418
2024-10-10 14:00:00+00:00,113.65007972793056
2024-10-10 15:00:00+00:00,82.15394500238821
2024-10-10 16:00:00+00:00,79.50879900330749
2024-10-10 17:00:00+00:00,60.395928275956464
2024-10-10 18:00:00+00:00,55.8373100910796
2024-10-10 19:00:00+00:00,60.07552588612045
2024-10-11 13:00:00+00:00,28.94794137780766
2024-10-11 14:00:00+00:00,26.941754214355445
2024-10-11 15:00:00+00:00,12.50322389455755
2024-10-11 16:00:00+00:00,-16.443466099792833
2024-10-11 17:00:00+00:00,-10.26340957153468
2024-10-11 18:00:00+00:00,5.7353426482971095
2024-10-11 19:00:00+00:00,42.026724950428246
2024-10-14 13:00:00+00:00,100.64547017734316
2024-10-14 14:00:00+00:00,91.65546626917364
2024-10-14 15:00:00+00:00,111.2917499655185
2024-10-14 16:00:00+00:00,85.66389130523386
2024-10-14 17:00:00+00:00,89.73417573255657
2024-10-14 18:00:00+00:00,117.1337124428269
2024-10-14 19:00:00+00:00,86.97462421303034
2024-10-15 13:00:00+00:00,244.26089324651116
2024-10-15 14:00:00+00:00,220.38767779796945
2024-10-15 15:00:00+00:00,227.96652650713352
2024-10-15 16:00:00+00:00,231.12318986483018
2024-10-15 17:00:00+00:00,233.935368560255
2024-10-15 18:00:00+00:00,244.11546282809257
2024-10-15 19:00:00+00:00,272.7035085748921
2024-10-16 13:00:00+00:00,277.46223931355803
2024-10-16 14:00:00+00:00,286.1367611573454
2024-10-16 15:00:00+00:00,274.8303382864736
2024-10-16 16:00:00+00:00,263.6295226531701
2024-10-16 17:00:00+00:00,239.96634738702295
2024-10-16 18:00:00+00:00,260.6707731931358
2024-10-16 19:00:00+00:00,277.4455344149951
2024-10-17 13:00:00+00:00,299.3784904534584
2024-10-17 14:00:00+00:00,330.13462671917284
2024-10-17 15:00:00+00:00,328.7769981199849
2024-10-17 16:00:00+00:00,317.1212021682302
2024-10-17 17:00:00+00:00,315.0440689477926
2024-10-17 18:00:00+00:00,317.80648583329906
2024-10-17 19:00:00+00:00,311.26646835526105
2024-10-18 13:00:00+00:00,378.33645521301855
2024-10-18 14:00:00+00:00,378.33645521301855
2024-10-18 15:00:00+00:00,378.33645521301855
2024-10-18 16:00:00+00:00,378.33645521301855
2024-10-18 17:00:00+00:00,378.33645521301855
2024-10-18 18:00:00+00:00,378.33645521301855
2024-10-18 19:00:00+00:00,378.33645521301855
2024-10-21 13:00:00+00:00,378.33645521301855
2024-10-21 14:00:00+00:00,378.33645521301855
2024-10-21 15:00:00+00:00,378.33645521301855
2024-10-21 16:00:00+00:00,378.33645521301855
2024-10-21 17:00:00+00:00,378.33645521301855
2024-10-21 18:00:00+00:00,378.33645521301855
2024-10-21 19:00:00+00:00,378.33645521301855
2024-10-22 13:00:00+00:00,378.33645521301855
2024-10-22 14:00:00+00:00,378.33645521301855
2024-10-22 15:00:00+00:00,378.33645521301855
2024-10-22 16:00:00+00:00,378.33645521301855
2024-10-22 17:00:00+00:00,378.33645521301855
2024-10-22 18:00:00+00:00,378.33645521301855
2024-10-22 19:00:00+00:00,378.33645521301855
2024-10-23 13:00:00+00:00,378.33645521301855
2024-10-23 14:00:00+00:00,378.33645521301855
2024-10-23 15:00:00+00:00,378.33645521301855
2024-10-23 16:00:00+00:00,378.33645521301855
2024-10-23 17:00:00+00:00,378.33645521301855
2024-10-23 18:00:00+00:00,378.33645521301855
2024-10-23 19:00:00+00:00,378.33645521301855
2024-10-24 13:00:00+00:00,378.33645521301855
2024-10-24 14:00:00+00:00,378.33645521301855
2024-10-24 15:00:00+00:00,378.33645521301855
2024-10-24 16:00:00+00:00,378.33645521301855
2024-10-24 17:00:00+00:00,378.33645521301855
2024-10-24 18:00:00+00:00,378.33645521301855
2024-10-24 19:00:00+00:00,378.33645521301855
2024-10-25 13:00:00+00:00,378.33645521301855
2024-10-25 14:00:00+00:00,378.33645521301855
2024-10-25 15:00:00+00:00,378.33645521301855
2024-10-25 16:00:00+00:00,378.33645521301855
2024-10-25 17:00:00+00:00,378.33645521301855
2024-10-25 18:00:00+00:00,378.33645521301855
2024-10-25 19:00:00+00:00,378.33645521301855
2024-10-28 13:00:00+00:00,378.33645521301855
2024-10-28 14:00:00+00:00,378.33645521301855
2024-10-28 15:00:00+00:00,378.33645521301855
2024-10-28 16:00:00+00:00,378.33645521301855
2024-10-28 17:00:00+00:00,378.33645521301855
2024-10-28 18:00:00+00:00,378.33645521301855
2024-10-28 19:00:00+00:00,378.33645521301855
2024-10-29 13:00:00+00:00,378.33645521301855
2024-10-29 14:00:00+00:00,378.33645521301855
2024-10-29 15:00:00+00:00,378.33645521301855
2024-10-29 16:00:00+00:00,378.33645521301855
2024-10-29 17:00:00+00:00,378.33645521301855
2024-10-29 18:00:00+00:00,378.33645521301855
2024-10-29 19:00:00+00:00,378.33645521301855
2024-10-30 13:00:00+00:00,378.33645521301855
2024-10-30 14:00:00+00:00,378.33645521301855
2024-10-30 15:00:00+00:00,378.33645521301855
2024-10-30 16:00:00+00:00,378.33645521301855
2024-10-30 17:00:00+00:00,378.33645521301855
2024-10-30 18:00:00+00:00,378.33645521301855
2024-10-30 19:00:00+00:00,378.33645521301855
2024-10-31 13:00:00+00:00,378.33645521301855
2024-10-31 14:00:00+00:00,378.33645521301855
2024-10-31 15:00:00+00:00,378.33645521301855
2024-10-31 16:00:00+00:00,378.33645521301855
2024-10-31 17:00:00+00:00,378.33645521301855
2024-10-31 18:00:00+00:00,378.33645521301855
2024-10-31 19:00:00+00:00,378.33645521301855
2024-11-01 13:00:00+00:00,378.33645521301855
2024-11-01 14:00:00+00:00,378.33645521301855
2024-11-01 15:00:00+00:00,378.33645521301855
2024-11-01 16:00:00+00:00,378.33645521301855
2024-11-01 17:00:00+00:00,378.33645521301855
2024-11-01 18:00:00+00:00,378.33645521301855
2024-11-01 19:00:00+00:00,378.33645521301855
2024-11-04 14:00:00+00:00,378.33645521301855
2024-11-04 15:00:00+00:00,378.33645521301855
2024-11-04 16:00:00+00:00,378.33645521301855
2024-11-04 17:00:00+00:00,378.33645521301855
2024-11-04 18:00:00+00:00,378.33645521301855
2024-11-04 19:00:00+00:00,378.33645521301855
2024-11-04 20:00:00+00:00,378.33645521301855
2024-11-05 14:00:00+00:00,378.33645521301855
2024-11-05 15:00:00+00:00,378.33645521301855
2024-11-05 16:00:00+00:00,378.33645521301855
2024-11-05 17:00:00+00:00,378.33645521301855
2024-11-05 18:00:00+00:00,378.33645521301855
2024-11-05 19:00:00+00:00,378.33645521301855
2024-11-05 20:00:00+00:00,378.33645521301855
2024-11-06 14:00:00+00:00,378.33645521301855
2024-11-06 15:00:00+00:00,378.33645521301855
2024-11-06 16:00:00+00:00,378.33645521301855
2024-11-06 17:00:00+00:00,378.33645521301855
2024-11-06 18:00:00+00:00,378.33645521301855
2024-11-06 19:00:00+00:00,378.33645521301855
2024-11-06 20:00:00+00:00,378.33645521301855
2024-11-07 14:00:00+00:00,378.33645521301855
2024-11-07 15:00:00+00:00,378.33645521301855
2024-11-07 16:00:00+00:00,378.33645521301855
2024-11-07 17:00:00+00:00,378.33645521301855
2024-11-07 18:00:00+00:00,378.33645521301855
2024-11-07 19:00:00+00:00,378.33645521301855
2024-11-07 20:00:00+00:00,378.33645521301855
2024-11-08 14:00:00+00:00,378.33645521301855
2024-11-08 15:00:00+00:00,319.33013456977227
2024-11-08 16:00:00+00:00,314.79296423807216
2024-11-08 17:00:00+00:00,258.47178901838515
2024-11-08 18:00:00+00:00,230.75302463507663
2024-11-08 19:00:00+00:00,223.0057405062944
2024-11-08 20:00:00+00:00,251.9820552908463
2024-11-11 14:00:00+00:00,233.10930421489093
2024-11-11 15:00:00+00:00,309.549202146716
2024-11-11 16:00:00+00:00,322.00502619339534
2024-11-11 17:00:00+00:00,342.7979777791474
2024-11-11 18:00:00+00:00,308.33889396146344
2024-11-11 19:00:00+00:00,331.62071676649146
2024-11-11 20:00:00+00:00,334.2722055766891
2024-11-12 14:00:00+00:00,315.6915492353119
2024-11-12 15:00:00+00:00,307.56538352307183
2024-11-12 16:00:00+00:00,324.33277605981607
2024-11-12 17:00:00+00:00,334.90548481827415
2024-11-12 18:00:00+00:00,328.90232986882313
2024-11-12 19:00:00+00:00,330.5782378858381
2024-11-12 20:00:00+00:00,323.71843338277444
2024-11-13 14:00:00+00:00,351.452993046869
2024-11-13 15:00:00+00:00,309.6563785685893
2024-11-13 16:00:00+00:00,279.50656351235085
2024-11-13 17:00:00+00:00,265.6127157792473
2024-11-13 18:00:00+00:00,267.3144992337965
2024-11-13 19:00:00+00:00,275.0275010514532
2024-11-13 20:00:00+00:00,275.4304561158697
2024-11-14 14:00:00+00:00,259.29081135630776
2024-11-14 15:00:00+00:00,308.5473471792087
2024-11-14 16:00:00+00:00,327.0997675013698
2024-11-14 17:00:00+00:00,307.9893032109581
2024-11-14 18:00:00+00:00,280.5951881556692
2024-11-14 19:00:00+00:00,246.0736306867737
2024-11-14 20:00:00+00:00,228.26117181473703
2024-11-15 14:00:00+00:00,205.25094734932557
2024-11-15 15:00:00+00:00,267.0386705355661
2024-11-15 16:00:00+00:00,255.21614695182976
2024-11-15 17:00:00+00:00,263.123546030604
2024-11-15 18:00:00+00:00,278.216117617305
2024-11-15 19:00:00+00:00,278.392800172553
2024-11-15 20:00:00+00:00,268.7879272449584
2024-11-18 14:00:00+00:00,198.80602321441646
2024-11-18 15:00:00+00:00,209.0016867409437
2024-11-18 16:00:00+00:00,162.55191470115753
2024-11-18 17:00:00+00:00,160.84043911466017
2024-11-18 18:00:00+00:00,173.0715108606338
2024-11-18 19:00:00+00:00,167.52478075979846
2024-11-18 20:00:00+00:00,190.50197167163466
2024-11-19 14:00:00+00:00,214.83853399482075
2024-11-19 15:00:00+00:00,230.09764115880142
2024-11-19 16:00:00+00:00,219.66837411157528
2024-11-19 17:00:00+00:00,243.3118990399297
2024-11-19 18:00:00+00:00,231.52063068399877
2024-11-19 19:00:00+00:00,257.4305394857991
2024-11-19 20:00:00+00:00,252.54670119199946
2024-11-20 14:00:00+00:00,195.97603671880162
2024-11-20 15:00:00+00:00,213.13514088866825
2024-11-20 16:00:00+00:00,227.33084699124151
2024-11-20 17:00:00+00:00,212.1560828478686
2024-11-20 18:00:00+00:00,210.79030201414187
2024-11-20 19:00:00+00:00,177.10457937016582
2024-11-20 20:00:00+00:00,176.21264351201242
2024-11-21 14:00:00+00:00,128.62069788240575
2024-11-21 15:00:00+00:00,130.6401085029194
2024-11-21 16:00:00+00:00,163.22858176472704
2024-11-21 17:00:00+00:00,190.59110625844392
2024-11-21 18:00:00+00:00,208.2877271653579
2024-11-21 19:00:00+00:00,196.48157391288373
2024-11-21 20:00:00+00:00,221.90877328355114
2024-11-22 14:00:00+00:00,201.88435450090617
2024-11-22 15:00:00+00:00,163.89491578124523
2024-11-22 16:00:00+00:00,145.0098672633858
2024-11-22 17:00:00+00:00,175.35292127521737
2024-11-22 18:00:00+00:00,174.76450844732943
2024-11-22 19:00:00+00:00,178.962306228751
2024-11-22 20:00:00+00:00,165.0175323716918
2024-11-25 14:00:00+00:00,230.71256204346582
2024-11-25 15:00:00+00:00,299.5476967848036
2024-11-25 16:00:00+00:00,363.14966458225587
2024-11-25 17:00:00+00:00,368.5691988446173
2024-11-25 18:00:00+00:00,389.56420019389554
2024-11-25 19:00:00+00:00,404.14773674763245
2024-11-25 20:00:00+00:00,425.57437213940426
2024-11-26 14:00:00+00:00,417.02634158615655
2024-11-26 15:00:00+00:00,466.02798553759624
2024-11-26 16:00:00+00:00,444.58847765344416
2024-11-26 17:00:00+00:00,431.31315163941343
2024-11-26 18:00:00+00:00,373.7368536728225
2024-11-26 19:00:00+00:00,387.35645679901256
2024-11-26 20:00:00+00:00,391.53590744471853
2024-11-27 14:00:00+00:00,329.0107925219408
2024-11-27 15:00:00+00:00,308.26727416855215
2024-11-27 16:00:00+00:00,293.3710135905338
2024-11-27 17:00:00+00:00,328.14874705634804
2024-11-27 18:00:00+00:00,332.746633921826
2024-11-27 19:00:00+00:00,338.1564469920116
2024-11-27 20:00:00+00:00,343.0033281075615
2024-11-29 14:00:00+00:00,304.88263948506864
2024-11-29 15:00:00+00:00,331.4126297187542
2024-11-29 16:00:00+00:00,330.73433359409853
2024-12-02 14:00:00+00:00,429.5243453281107
2024-12-02 15:00:00+00:00,484.16907053666824
2024-12-02 16:00:00+00:00,509.078088732672
2024-12-02 17:00:00+00:00,470.9888470453839
2024-12-02 18:00:00+00:00,451.7787658564281
2024-12-02 19:00:00+00:00,452.5269458909408
2024-12-02 20:00:00+00:00,475.3271189137623
2024-12-03 14:00:00+00:00,471.0327886964866
2024-12-03 15:00:00+00:00,441.82540983656475
2024-12-03 16:00:00+00:00,430.64977788499505
2024-12-03 17:00:00+00:00,398.5160537530866
2024-12-03 18:00:00+00:00,369.56362638041037
2024-12-03 19:00:00+00:00,402.94073469386234
2024-12-03 20:00:00+00:00,410.59611627870765
2024-12-04 14:00:00+00:00,559.7693592835831
2024-12-04 15:00:00+00:00,525.3220515049536
2024-12-04 16:00:00+00:00,546.0683727295904
2024-12-04 17:00:00+00:00,551.649464933947
2024-12-04 18:00:00+00:00,546.4203742520059
2024-12-04 19:00:00+00:00,523.8086392322219
2024-12-04 20:00:00+00:00,511.4502704152402
2024-12-05 14:00:00+00:00,426.0481434344569
2024-12-05 15:00:00+00:00,462.39566111186855
2024-12-05 16:00:00+00:00,467.79406030057953
2024-12-05 17:00:00+00:00,450.63487129416416
2024-12-05 18:00:00+00:00,498.2850810851827
2024-12-05 19:00:00+00:00,462.7580019138837
2024-12-05 20:00:00+00:00,467.60747048407273
2024-12-06 14:00:00+00:00,660.8797052236968
2024-12-06 15:00:00+00:00,612.7235638783693
2024-12-06 16:00:00+00:00,606.9073459141937
2024-12-06 17:00:00+00:00,607.540981710905
2024-12-06 18:00:00+00:00,593.4116460604035
2024-12-06 19:00:00+00:00,586.7534389479029
2024-12-06 20:00:00+00:00,588.1610643797814
2024-12-09 14:00:00+00:00,584.7704772975176
2024-12-09 15:00:00+00:00,577.2792411093067
2024-12-09 16:00:00+00:00,557.2568559521825
2024-12-09 17:00:00+00:00,542.255644285211
2024-12-09 18:00:00+00:00,564.3025103735517
2024-12-09 19:00:00+00:00,550.311058146067
2024-12-09 20:00:00+00:00,622.335367867832
2024-12-10 14:00:00+00:00,557.9978442234013
2024-12-10 15:00:00+00:00,579.4983827667617
2024-12-10 16:00:00+00:00,604.5317198037283
2024-12-10 17:00:00+00:00,620.1962680664703
2024-12-10 18:00:00+00:00,622.4834994883277
2024-12-10 19:00:00+00:00,660.831211723102
2024-12-10 20:00:00+00:00,672.885134715974
2024-12-11 14:00:00+00:00,672.885134715974
2024-12-11 15:00:00+00:00,672.885134715974
2024-12-11 16:00:00+00:00,672.885134715974
2024-12-11 17:00:00+00:00,672.885134715974
2024-12-11 18:00:00+00:00,672.885134715974
2024-12-11 19:00:00+00:00,672.885134715974
2024-12-11 20:00:00+00:00,672.885134715974
2024-12-12 14:00:00+00:00,672.885134715974
2024-12-12 15:00:00+00:00,672.885134715974
2024-12-12 16:00:00+00:00,672.885134715974
2024-12-12 17:00:00+00:00,672.885134715974
2024-12-12 18:00:00+00:00,672.885134715974
2024-12-12 19:00:00+00:00,672.885134715974
2024-12-12 20:00:00+00:00,672.885134715974
2024-12-13 14:00:00+00:00,672.885134715974
2024-12-13 15:00:00+00:00,672.885134715974
2024-12-13 16:00:00+00:00,672.885134715974
2024-12-13 17:00:00+00:00,672.885134715974
2024-12-13 18:00:00+00:00,672.885134715974
2024-12-13 19:00:00+00:00,672.885134715974
2024-12-13 20:00:00+00:00,672.885134715974
2024-12-16 14:00:00+00:00,672.885134715974
2024-12-16 15:00:00+00:00,672.885134715974
2024-12-16 16:00:00+00:00,672.885134715974
2024-12-16 17:00:00+00:00,672.885134715974
2024-12-16 18:00:00+00:00,672.885134715974
2024-12-16 19:00:00+00:00,672.885134715974
2024-12-16 20:00:00+00:00,672.885134715974
2024-12-17 14:00:00+00:00,672.885134715974
2024-12-17 15:00:00+00:00,672.885134715974
2024-12-17 16:00:00+00:00,672.885134715974
2024-12-17 17:00:00+00:00,672.885134715974
2024-12-17 18:00:00+00:00,672.885134715974
2024-12-17 19:00:00+00:00,672.885134715974
2024-12-17 20:00:00+00:00,672.885134715974
2024-12-18 14:00:00+00:00,672.885134715974
2024-12-18 15:00:00+00:00,672.885134715974
2024-12-18 16:00:00+00:00,672.885134715974
2024-12-18 17:00:00+00:00,672.885134715974
2024-12-18 18:00:00+00:00,672.885134715974
2024-12-18 19:00:00+00:00,672.885134715974
2024-12-18 20:00:00+00:00,672.885134715974
2024-12-19 14:00:00+00:00,672.885134715974
2024-12-19 15:00:00+00:00,672.885134715974
2024-12-19 16:00:00+00:00,672.885134715974
2024-12-19 17:00:00+00:00,672.885134715974
2024-12-19 18:00:00+00:00,672.885134715974
2024-12-19 19:00:00+00:00,672.885134715974
2024-12-19 20:00:00+00:00,672.885134715974
2024-12-20 14:00:00+00:00,672.885134715974
2024-12-20 15:00:00+00:00,672.885134715974
2024-12-20 16:00:00+00:00,672.885134715974
2024-12-20 17:00:00+00:00,672.885134715974
2024-12-20 18:00:00+00:00,672.885134715974
2024-12-20 19:00:00+00:00,672.885134715974
2024-12-20 20:00:00+00:00,672.885134715974
2024-12-23 14:00:00+00:00,672.885134715974
2024-12-23 15:00:00+00:00,672.885134715974
2024-12-23 16:00:00+00:00,672.885134715974
2024-12-23 17:00:00+00:00,672.885134715974
2024-12-23 18:00:00+00:00,672.885134715974
2024-12-23 19:00:00+00:00,672.885134715974
2024-12-23 20:00:00+00:00,672.885134715974
2024-12-24 14:00:00+00:00,672.885134715974
2024-12-24 15:00:00+00:00,672.885134715974
2024-12-24 16:00:00+00:00,672.885134715974
2024-12-26 14:00:00+00:00,672.885134715974
2024-12-26 15:00:00+00:00,672.885134715974
2024-12-26 16:00:00+00:00,672.885134715974
2024-12-26 17:00:00+00:00,672.885134715974
2024-12-26 18:00:00+00:00,672.885134715974
2024-12-26 19:00:00+00:00,672.885134715974
2024-12-26 20:00:00+00:00,672.885134715974
2024-12-27 14:00:00+00:00,672.885134715974
2024-12-27 15:00:00+00:00,672.885134715974
2024-12-27 16:00:00+00:00,672.885134715974
2024-12-27 17:00:00+00:00,672.885134715974
2024-12-27 18:00:00+00:00,672.885134715974
2024-12-27 19:00:00+00:00,672.885134715974
2024-12-27 20:00:00+00:00,672.885134715974
2024-12-30 14:00:00+00:00,672.885134715974
2024-12-30 15:00:00+00:00,672.885134715974
2024-12-30 16:00:00+00:00,672.885134715974
2024-12-30 17:00:00+00:00,672.885134715974
2024-12-30 18:00:00+00:00,672.885134715974
2024-12-30 19:00:00+00:00,672.885134715974
2024-12-30 20:00:00+00:00,672.885134715974
2024-12-31 14:00:00+00:00,672.885134715974
2024-12-31 15:00:00+00:00,672.885134715974
2024-12-31 16:00:00+00:00,672.885134715974
2024-12-31 17:00:00+00:00,672.885134715974
2024-12-31 18:00:00+00:00,672.885134715974
2024-12-31 19:00:00+00:00,672.885134715974
2024-12-31 20:00:00+00:00,672.885134715974
2025-01-02 14:00:00+00:00,672.885134715974
2025-01-02 15:00:00+00:00,672.885134715974
2025-01-02 16:00:00+00:00,672.885134715974
2025-01-02 17:00:00+00:00,672.885134715974
2025-01-02 18:00:00+00:00,672.885134715974
2025-01-02 19:00:00+00:00,672.885134715974
2025-01-02 20:00:00+00:00,672.885134715974
2025-01-03 14:00:00+00:00,672.885134715974
2025-01-03 15:00:00+00:00,672.885134715974
2025-01-03 16:00:00+00:00,672.885134715974
2025-01-03 17:00:00+00:00,672.885134715974
2025-01-03 18:00:00+00:00,672.885134715974
2025-01-03 19:00:00+00:00,672.885134715974
2025-01-03 20:00:00+00:00,672.885134715974
2025-01-06 14:00:00+00:00,672.885134715974
2025-01-06 15:00:00+00:00,672.885134715974
2025-01-06 16:00:00+00:00,672.885134715974
2025-01-06 17:00:00+00:00,672.885134715974
2025-01-06 18:00:00+00:00,672.885134715974
2025-01-06 19:00:00+00:00,672.885134715974
2025-01-06 20:00:00+00:00,672.885134715974
2025-01-07 14:00:00+00:00,672.885134715974
2025-01-07 15:00:00+00:00,672.885134715974
2025-01-07 16:00:00+00:00,672.885134715974
2025-01-07 17:00:00+00:00,672.885134715974
2025-01-07 18:00:00+00:00,672.885134715974
2025-01-07 19:00:00+00:00,672.885134715974
2025-01-07 20:00:00+00:00,672.885134715974
2025-01-08 14:00:00+00:00,672.885134715974
2025-01-08 15:00:00+00:00,672.885134715974
2025-01-08 16:00:00+00:00,672.885134715974
2025-01-08 17:00:00+00:00,672.885134715974
2025-01-08 18:00:00+00:00,672.885134715974
2025-01-08 19:00:00+00:00,672.885134715974
2025-01-08 20:00:00+00:00,672.885134715974
2025-01-10 14:00:00+00:00,672.885134715974
2025-01-10 15:00:00+00:00,672.885134715974
2025-01-10 16:00:00+00:00,672.885134715974
2025-01-10 17:00:00+00:00,672.885134715974
2025-01-10 18:00:00+00:00,672.885134715974
2025-01-10 19:00:00+00:00,672.885134715974
2025-01-10 20:00:00+00:00,672.885134715974
2025-01-13 14:00:00+00:00,672.885134715974
2025-01-13 15:00:00+00:00,620.202062586018
2025-01-13 16:00:00+00:00,619.2550121244694
2025-01-13 17:00:00+00:00,560.2070304708803
2025-01-13 18:00:00+00:00,572.9553269411863
2025-01-13 19:00:00+00:00,624.7843577517075
2025-01-13 20:00:00+00:00,631.208168181512
2025-01-14 14:00:00+00:00,618.6160392318593
2025-01-14 15:00:00+00:00,601.0071054252231
2025-01-14 16:00:00+00:00,590.6930119746216
2025-01-14 17:00:00+00:00,569.1072605130096
2025-01-14 18:00:00+00:00,571.8431222532532
2025-01-14 19:00:00+00:00,583.5519049248888
2025-01-14 20:00:00+00:00,560.0845270846764
2025-01-15 14:00:00+00:00,612.5189272909465
2025-01-15 15:00:00+00:00,616.0464477709561
2025-01-15 16:00:00+00:00,614.2704679046111
2025-01-15 17:00:00+00:00,594.3924308323351
2025-01-15 18:00:00+00:00,563.6846839816287
2025-01-15 19:00:00+00:00,555.2762011434319
2025-01-15 20:00:00+00:00,529.5922713996569
2025-01-16 14:00:00+00:00,526.4042377380872
2025-01-16 15:00:00+00:00,510.50845913352504
2025-01-16 16:00:00+00:00,516.1793808692665
2025-01-16 17:00:00+00:00,522.3315510266228
2025-01-16 18:00:00+00:00,520.1919897378177
2025-01-16 19:00:00+00:00,508.15835928588075
2025-01-16 20:00:00+00:00,484.25288881224344
2025-01-17 14:00:00+00:00,556.068239658438
2025-01-17 15:00:00+00:00,576.1511372620564
2025-01-17 16:00:00+00:00,575.9690567160044
2025-01-17 17:00:00+00:00,597.9752494957796
2025-01-17 18:00:00+00:00,619.7023283130064
2025-01-17 19:00:00+00:00,612.7444882202259
2025-01-17 20:00:00+00:00,595.6735128127176
2025-01-21 14:00:00+00:00,672.4763928761661
2025-01-21 15:00:00+00:00,612.5764197217414
2025-01-21 16:00:00+00:00,638.3444674401298
2025-01-21 17:00:00+00:00,629.6422584781529
2025-01-21 18:00:00+00:00,664.3346043828277
2025-01-21 19:00:00+00:00,655.0907888223055
2025-01-21 20:00:00+00:00,607.5558636670561
2025-01-22 14:00:00+00:00,621.8248256322005
2025-01-22 15:00:00+00:00,609.0745204092062
2025-01-22 16:00:00+00:00,578.8145353841152
2025-01-22 17:00:00+00:00,598.5156601531884
2025-01-22 18:00:00+00:00,643.604669437813
2025-01-22 19:00:00+00:00,633.1269629445515
2025-01-22 20:00:00+00:00,681.0096902487886
2025-01-23 14:00:00+00:00,635.3864820594918
2025-01-23 15:00:00+00:00,740.403894915915
2025-01-23 16:00:00+00:00,741.0894192532205
2025-01-23 17:00:00+00:00,716.8037140466218
2025-01-23 18:00:00+00:00,733.4216679112883
2025-01-23 19:00:00+00:00,765.2417425160575
2025-01-23 20:00:00+00:00,752.7812346806916
2025-01-24 14:00:00+00:00,852.3461333706459
2025-01-24 15:00:00+00:00,865.6262833004974
2025-01-24 16:00:00+00:00,874.3334253749703
2025-01-24 17:00:00+00:00,888.5638788623943
2025-01-24 18:00:00+00:00,869.9683536085082
2025-01-24 19:00:00+00:00,857.9287501525527
2025-01-24 20:00:00+00:00,873.7308291412622
2025-01-27 14:00:00+00:00,768.4266399824648
2025-01-27 15:00:00+00:00,836.6164245995875
2025-01-27 16:00:00+00:00,889.1037128603731
2025-01-27 17:00:00+00:00,894.95530379799
2025-01-27 18:00:00+00:00,870.5330007848252
2025-01-27 19:00:00+00:00,863.4745023853521
2025-01-27 20:00:00+00:00,882.4155486719649
2025-01-28 14:00:00+00:00,957.0402622434412
2025-01-28 15:00:00+00:00,978.7502507503739
2025-01-28 16:00:00+00:00,987.7774702285487
2025-01-28 17:00:00+00:00,975.6807293103145
2025-01-28 18:00:00+00:00,955.5919829870809
2025-01-28 19:00:00+00:00,933.9317182078646
2025-01-28 20:00:00+00:00,949.9551188057982
2025-01-29 14:00:00+00:00,981.6219276367727
2025-01-29 15:00:00+00:00,969.8138168481001
2025-01-29 16:00:00+00:00,984.5690570728019
2025-01-29 17:00:00+00:00,991.978543342737
2025-01-29 18:00:00+00:00,995.2204430944834
2025-01-29 19:00:00+00:00,969.255825734941
2025-01-29 20:00:00+00:00,967.7320767263064
2025-01-30 14:00:00+00:00,894.3337237303875
2025-01-30 15:00:00+00:00,881.9967235383897
2025-01-30 16:00:00+00:00,956.5358908374161
2025-01-30 17:00:00+00:00,924.9349299435303
2025-01-30 18:00:00+00:00,946.787543319923
2025-01-30 19:00:00+00:00,946.8788066983215
2025-01-30 20:00:00+00:00,948.2219752743055
2025-01-31 14:00:00+00:00,1135.1788224468787
2025-01-31 15:00:00+00:00,1135.1788224468787
2025-01-31 16:00:00+00:00,1135.1788224468787
2025-01-31 17:00:00+00:00,1135.1788224468787
2025-01-31 18:00:00+00:00,1135.1788224468787
2025-01-31 19:00:00+00:00,1135.1788224468787
2025-01-31 20:00:00+00:00,1135.1788224468787
2025-02-03 14:00:00+00:00,1135.1788224468787
2025-02-03 15:00:00+00:00,1135.1788224468787
2025-02-03 16:00:00+00:00,1135.1788224468787
2025-02-03 17:00:00+00:00,1135.1788224468787
2025-02-03 18:00:00+00:00,1135.1788224468787
2025-02-03 19:00:00+00:00,1135.1788224468787
2025-02-03 20:00:00+00:00,1135.1788224468787
2025-02-04 14:00:00+00:00,1135.1788224468787
2025-02-04 15:00:00+00:00,1135.1788224468787
2025-02-04 16:00:00+00:00,1135.1788224468787
2025-02-04 17:00:00+00:00,1135.1788224468787
2025-02-04 18:00:00+00:00,1135.1788224468787
2025-02-04 19:00:00+00:00,1135.1788224468787
2025-02-04 20:00:00+00:00,1135.1788224468787
2025-02-05 14:00:00+00:00,1135.1788224468787
2025-02-05 15:00:00+00:00,1135.1788224468787
2025-02-05 16:00:00+00:00,1135.1788224468787
2025-02-05 17:00:00+00:00,1135.1788224468787
2025-02-05 18:00:00+00:00,1135.1788224468787
2025-02-05 19:00:00+00:00,1135.1788224468787
2025-02-05 20:00:00+00:00,1135.1788224468787
2025-02-06 14:00:00+00:00,1135.1788224468787
2025-02-06 15:00:00+00:00,1135.1788224468787
2025-02-06 16:00:00+00:00,1135.1788224468787
2025-02-06 17:00:00+00:00,1135.1788224468787
2025-02-06 18:00:00+00:00,1135.1788224468787
2025-02-06 19:00:00+00:00,1135.1788224468787
2025-02-06 20:00:00+00:00,1135.1788224468787
2025-02-07 14:00:00+00:00,1135.1788224468787
2025-02-07 15:00:00+00:00,1135.1788224468787
2025-02-07 16:00:00+00:00,1135.1788224468787
2025-02-07 17:00:00+00:00,1135.1788224468787
2025-02-07 18:00:00+00:00,1135.1788224468787
2025-02-07 19:00:00+00:00,1135.1788224468787
2025-02-07 20:00:00+00:00,1135.1788224468787
2025-02-10 14:00:00+00:00,1135.1788224468787
2025-02-10 15:00:00+00:00,1135.1788224468787
2025-02-10 16:00:00+00:00,1135.1788224468787
2025-02-10 17:00:00+00:00,1135.1788224468787
2025-02-10 18:00:00+00:00,1135.1788224468787
2025-02-10 19:00:00+00:00,1135.1788224468787
2025-02-10 20:00:00+00:00,1135.1788224468787
2025-02-11 14:00:00+00:00,1135.1788224468787
2025-02-11 15:00:00+00:00,1135.1788224468787
2025-02-11 16:00:00+00:00,1135.1788224468787
2025-02-11 17:00:00+00:00,1135.1788224468787
2025-02-11 18:00:00+00:00,1135.1788224468787
2025-02-11 19:00:00+00:00,1135.1788224468787
2025-02-11 20:00:00+00:00,1135.1788224468787
2025-02-12 14:00:00+00:00,1135.1788224468787
2025-02-12 15:00:00+00:00,1135.1788224468787
2025-02-12 16:00:00+00:00,1135.1788224468787
2025-02-12 17:00:00+00:00,1135.1788224468787
2025-02-12 18:00:00+00:00,1135.1788224468787
2025-02-12 19:00:00+00:00,1135.1788224468787
2025-02-12 20:00:00+00:00,1135.1788224468787
2025-02-13 14:00:00+00:00,1135.1788224468787
2025-02-13 15:00:00+00:00,1135.1788224468787
2025-02-13 16:00:00+00:00,1135.1788224468787
2025-02-13 17:00:00+00:00,1135.1788224468787
2025-02-13 18:00:00+00:00,1135.1788224468787
2025-02-13 19:00:00+00:00,1135.1788224468787
2025-02-13 20:00:00+00:00,1135.1788224468787
2025-02-14 14:00:00+00:00,1135.1788224468787
2025-02-14 15:00:00+00:00,1135.1788224468787
2025-02-14 16:00:00+00:00,1135.1788224468787
2025-02-14 17:00:00+00:00,1135.1788224468787
2025-02-14 18:00:00+00:00,1135.1788224468787
2025-02-14 19:00:00+00:00,1135.1788224468787
2025-02-14 20:00:00+00:00,1135.1788224468787
2025-02-18 14:00:00+00:00,1135.1788224468787
2025-02-18 15:00:00+00:00,1135.1788224468787
2025-02-18 16:00:00+00:00,1135.1788224468787
2025-02-18 17:00:00+00:00,1135.1788224468787
2025-02-18 18:00:00+00:00,1135.1788224468787
2025-02-18 19:00:00+00:00,1135.1788224468787
2025-02-18 20:00:00+00:00,1135.1788224468787
2025-02-19 14:00:00+00:00,1135.1788224468787
2025-02-19 15:00:00+00:00,1135.1788224468787
2025-02-19 16:00:00+00:00,1135.1788224468787
2025-02-19 17:00:00+00:00,1135.1788224468787
2025-02-19 18:00:00+00:00,1135.1788224468787
2025-02-19 19:00:00+00:00,1135.1788224468787
2025-02-19 20:00:00+00:00,1135.1788224468787
2025-02-20 14:00:00+00:00,1135.1788224468787
2025-02-20 15:00:00+00:00,1135.1788224468787
2025-02-20 16:00:00+00:00,1135.1788224468787
2025-02-20 17:00:00+00:00,1135.1788224468787
2025-02-20 18:00:00+00:00,1135.1788224468787
2025-02-20 19:00:00+00:00,1135.1788224468787
2025-02-20 20:00:00+00:00,1135.1788224468787
2025-02-21 14:00:00+00:00,1135.1788224468787
2025-02-21 15:00:00+00:00,1135.1788224468787
2025-02-21 16:00:00+00:00,1135.1788224468787
2025-02-21 17:00:00+00:00,1135.1788224468787
2025-02-21 18:00:00+00:00,1135.1788224468787
2025-02-21 19:00:00+00:00,1135.1788224468787
2025-02-21 20:00:00+00:00,1135.1788224468787
2025-02-24 14:00:00+00:00,1135.1788224468787
2025-02-24 15:00:00+00:00,1135.1788224468787
2025-02-24 16:00:00+00:00,1135.1788224468787
2025-02-24 17:00:00+00:00,1135.1788224468787
2025-02-24 18:00:00+00:00,1135.1788224468787
2025-02-24 19:00:00+00:00,1135.1788224468787
2025-02-24 20:00:00+00:00,1135.1788224468787
2025-02-25 14:00:00+00:00,1135.1788224468787
2025-02-25 15:00:00+00:00,1135.1788224468787
2025-02-25 16:00:00+00:00,1135.1788224468787
2025-02-25 17:00:00+00:00,1135.1788224468787
2025-02-25 18:00:00+00:00,1135.1788224468787
2025-02-25 19:00:00+00:00,1135.1788224468787
2025-02-25 20:00:00+00:00,1135.1788224468787
2025-02-26 14:00:00+00:00,1135.1788224468787
2025-02-26 15:00:00+00:00,1135.1788224468787
2025-02-26 16:00:00+00:00,1135.1788224468787
2025-02-26 17:00:00+00:00,1135.1788224468787
2025-02-26 18:00:00+00:00,1135.1788224468787
2025-02-26 19:00:00+00:00,1135.1788224468787
2025-02-26 20:00:00+00:00,1135.1788224468787
2025-02-27 14:00:00+00:00,1135.1788224468787
2025-02-27 15:00:00+00:00,1135.1788224468787
2025-02-27 16:00:00+00:00,1135.1788224468787
2025-02-27 17:00:00+00:00,1135.1788224468787
2025-02-27 18:00:00+00:00,1135.1788224468787
2025-02-27 19:00:00+00:00,1135.1788224468787
2025-02-27 20:00:00+00:00,1135.1788224468787
2025-02-28 14:00:00+00:00,1135.1788224468787
2025-02-28 15:00:00+00:00,1135.1788224468787
2025-02-28 16:00:00+00:00,1135.1788224468787
2025-02-28 17:00:00+00:00,1135.1788224468787
2025-02-28 18:00:00+00:00,1135.1788224468787
2025-02-28 19:00:00+00:00,1135.1788224468787
2025-02-28 20:00:00+00:00,1135.1788224468787
2025-03-03 14:00:00+00:00,1135.1788224468787
2025-03-03 15:00:00+00:00,1135.1788224468787
2025-03-03 16:00:00+00:00,1135.1788224468787
2025-03-03 17:00:00+00:00,1135.1788224468787
2025-03-03 18:00:00+00:00,1135.1788224468787
2025-03-03 19:00:00+00:00,1135.1788224468787
2025-03-03 20:00:00+00:00,1135.1788224468787
2025-03-04 14:00:00+00:00,1135.1788224468787
2025-03-04 15:00:00+00:00,1135.1788224468787
2025-03-04 16:00:00+00:00,1135.1788224468787
2025-03-04 17:00:00+00:00,1135.1788224468787
2025-03-04 18:00:00+00:00,1135.1788224468787
2025-03-04 19:00:00+00:00,1135.1788224468787
2025-03-04 20:00:00+00:00,1135.1788224468787
2025-03-05 14:00:00+00:00,1135.1788224468787
2025-03-05 15:00:00+00:00,1135.1788224468787
2025-03-05 16:00:00+00:00,1135.1788224468787
2025-03-05 17:00:00+00:00,1135.1788224468787
2025-03-05 18:00:00+00:00,1135.1788224468787
2025-03-05 19:00:00+00:00,1135.1788224468787
2025-03-05 20:00:00+00:00,1135.1788224468787
2025-03-06 14:00:00+00:00,1135.1788224468787
2025-03-06 15:00:00+00:00,1135.1788224468787
2025-03-06 16:00:00+00:00,1135.1788224468787
2025-03-06 17:00:00+00:00,1135.1788224468787
2025-03-06 18:00:00+00:00,1135.1788224468787
2025-03-06 19:00:00+00:00,1135.1788224468787
2025-03-06 20:00:00+00:00,1135.1788224468787
2025-03-07 14:00:00+00:00,1135.1788224468787
2025-03-07 15:00:00+00:00,1135.1788224468787
2025-03-07 16:00:00+00:00,1135.1788224468787
2025-03-07 17:00:00+00:00,1135.1788224468787
2025-03-07 18:00:00+00:00,1135.1788224468787
2025-03-07 19:00:00+00:00,1135.1788224468787
2025-03-07 20:00:00+00:00,1135.1788224468787
2025-03-10 13:00:00+00:00,1135.1788224468787
2025-03-10 14:00:00+00:00,1135.1788224468787
2025-03-10 15:00:00+00:00,1135.1788224468787
2025-03-10 16:00:00+00:00,1135.1788224468787
2025-03-10 17:00:00+00:00,1135.1788224468787
2025-03-10 18:00:00+00:00,1135.1788224468787
2025-03-10 19:00:00+00:00,1135.1788224468787
2025-03-11 13:00:00+00:00,1135.1788224468787
2025-03-11 14:00:00+00:00,1135.1788224468787
2025-03-11 15:00:00+00:00,1135.1788224468787
2025-03-11 16:00:00+00:00,1135.1788224468787
2025-03-11 17:00:00+00:00,1135.1788224468787
2025-03-11 18:00:00+00:00,1135.1788224468787
2025-03-11 19:00:00+00:00,1135.1788224468787
2025-03-12 13:00:00+00:00,1135.1788224468787
2025-03-12 14:00:00+00:00,1135.1788224468787
2025-03-12 15:00:00+00:00,1135.1788224468787
2025-03-12 16:00:00+00:00,1135.1788224468787
2025-03-12 17:00:00+00:00,1135.1788224468787
2025-03-12 18:00:00+00:00,1135.1788224468787
2025-03-12 19:00:00+00:00,1135.1788224468787
2025-03-13 13:00:00+00:00,1135.1788224468787
2025-03-13 14:00:00+00:00,1135.1788224468787
2025-03-13 15:00:00+00:00,1135.1788224468787
2025-03-13 16:00:00+00:00,1135.1788224468787
2025-03-13 17:00:00+00:00,1135.1788224468787
2025-03-13 18:00:00+00:00,1135.1788224468787
2025-03-13 19:00:00+00:00,1135.1788224468787
2025-03-14 13:00:00+00:00,1135.1788224468787
2025-03-14 14:00:00+00:00,1135.1788224468787
2025-03-14 15:00:00+00:00,1135.1788224468787
2025-03-14 16:00:00+00:00,1135.1788224468787
2025-03-14 17:00:00+00:00,1135.1788224468787
2025-03-14 18:00:00+00:00,1135.1788224468787
2025-03-14 19:00:00+00:00,1135.1788224468787
2025-03-17 13:00:00+00:00,1135.1788224468787
2025-03-17 14:00:00+00:00,1135.1788224468787
2025-03-17 15:00:00+00:00,1135.1788224468787
2025-03-17 16:00:00+00:00,1135.1788224468787
2025-03-17 17:00:00+00:00,1135.1788224468787
2025-03-17 18:00:00+00:00,1135.1788224468787
2025-03-17 19:00:00+00:00,1135.1788224468787
2025-03-18 13:00:00+00:00,1135.1788224468787
2025-03-18 14:00:00+00:00,1135.1788224468787
2025-03-18 15:00:00+00:00,1135.1788224468787
2025-03-18 16:00:00+00:00,1135.1788224468787
2025-03-18 17:00:00+00:00,1135.1788224468787
2025-03-18 18:00:00+00:00,1135.1788224468787
2025-03-18 19:00:00+00:00,1135.1788224468787
2025-03-19 13:00:00+00:00,1135.1788224468787
2025-03-19 14:00:00+00:00,1135.1788224468787
2025-03-19 15:00:00+00:00,1135.1788224468787
2025-03-19 16:00:00+00:00,1135.1788224468787
2025-03-19 17:00:00+00:00,1135.1788224468787
2025-03-19 18:00:00+00:00,1135.1788224468787
2025-03-19 19:00:00+00:00,1135.1788224468787
2025-03-20 13:00:00+00:00,1135.1788224468787
2025-03-20 14:00:00+00:00,1135.1788224468787
2025-03-20 15:00:00+00:00,1135.1788224468787
2025-03-20 16:00:00+00:00,1135.1788224468787
2025-03-20 17:00:00+00:00,1135.1788224468787
2025-03-20 18:00:00+00:00,1135.1788224468787
2025-03-20 19:00:00+00:00,1135.1788224468787
2025-03-21 13:00:00+00:00,1135.1788224468787
2025-03-21 14:00:00+00:00,1135.1788224468787
2025-03-21 15:00:00+00:00,1135.1788224468787
2025-03-21 16:00:00+00:00,1135.1788224468787
2025-03-21 17:00:00+00:00,1135.1788224468787
2025-03-21 18:00:00+00:00,1135.1788224468787
2025-03-21 19:00:00+00:00,1135.1788224468787
2025-03-24 13:00:00+00:00,1135.1788224468787
2025-03-24 14:00:00+00:00,1135.1788224468787
2025-03-24 15:00:00+00:00,1135.1788224468787
2025-03-24 16:00:00+00:00,1135.1788224468787
2025-03-24 17:00:00+00:00,1135.1788224468787
2025-03-24 18:00:00+00:00,1135.1788224468787
2025-03-24 19:00:00+00:00,1135.1788224468787
2025-03-25 13:00:00+00:00,1135.1788224468787
2025-03-25 14:00:00+00:00,1135.1788224468787
2025-03-25 15:00:00+00:00,1135.1788224468787
2025-03-25 16:00:00+00:00,1135.1788224468787
2025-03-25 17:00:00+00:00,1135.1788224468787
2025-03-25 18:00:00+00:00,1135.1788224468787
2025-03-25 19:00:00+00:00,1135.1788224468787
2025-03-26 13:00:00+00:00,1135.1788224468787
2025-03-26 14:00:00+00:00,1135.1788224468787
2025-03-26 15:00:00+00:00,1135.1788224468787
2025-03-26 16:00:00+00:00,1135.1788224468787
2025-03-26 17:00:00+00:00,1135.1788224468787
2025-03-26 18:00:00+00:00,1135.1788224468787
2025-03-26 19:00:00+00:00,1135.1788224468787
2025-03-27 13:00:00+00:00,1135.1788224468787
2025-03-27 14:00:00+00:00,1135.1788224468787
2025-03-27 15:00:00+00:00,1135.1788224468787
2025-03-27 16:00:00+00:00,1135.1788224468787
2025-03-27 17:00:00+00:00,1135.1788224468787
2025-03-27 18:00:00+00:00,1135.1788224468787
2025-03-27 19:00:00+00:00,1135.1788224468787
2025-03-28 13:00:00+00:00,1135.1788224468787
2025-03-28 14:00:00+00:00,1135.1788224468787
2025-03-28 15:00:00+00:00,1135.1788224468787
2025-03-28 16:00:00+00:00,1135.1788224468787
2025-03-28 17:00:00+00:00,1135.1788224468787
2025-03-28 18:00:00+00:00,1135.1788224468787
2025-03-28 19:00:00+00:00,1135.1788224468787
2025-03-31 13:00:00+00:00,1135.1788224468787
2025-03-31 14:00:00+00:00,1135.1788224468787
2025-03-31 15:00:00+00:00,1135.1788224468787
2025-03-31 16:00:00+00:00,1135.1788224468787
2025-03-31 17:00:00+00:00,1135.1788224468787
2025-03-31 18:00:00+00:00,1135.1788224468787
2025-03-31 19:00:00+00:00,1135.1788224468787
2025-04-01 13:00:00+00:00,1135.1788224468787
2025-04-01 14:00:00+00:00,1135.1788224468787
2025-04-01 15:00:00+00:00,1135.1788224468787
2025-04-01 16:00:00+00:00,1135.1788224468787
2025-04-01 17:00:00+00:00,1135.1788224468787
2025-04-01 18:00:00+00:00,1135.1788224468787
2025-04-01 19:00:00+00:00,1135.1788224468787
2025-04-02 13:00:00+00:00,1135.1788224468787
2025-04-02 14:00:00+00:00,1135.1788224468787
2025-04-02 15:00:00+00:00,1135.1788224468787
2025-04-02 16:00:00+00:00,1135.1788224468787
2025-04-02 17:00:00+00:00,1135.1788224468787
2025-04-02 18:00:00+00:00,1135.1788224468787
2025-04-02 19:00:00+00:00,1135.1788224468787
2025-04-03 13:00:00+00:00,1135.1788224468787
2025-04-03 14:00:00+00:00,1135.1788224468787
2025-04-03 15:00:00+00:00,1135.1788224468787
2025-04-03 16:00:00+00:00,1135.1788224468787
2025-04-03 17:00:00+00:00,1135.1788224468787
2025-04-03 18:00:00+00:00,1135.1788224468787
2025-04-03 19:00:00+00:00,1135.1788224468787
2025-04-04 13:00:00+00:00,709.5720138846044
2025-04-04 14:00:00+00:00,666.4902839869166
2025-04-04 15:00:00+00:00,656.8766962575935
2025-04-04 16:00:00+00:00,652.6300416233001
2025-04-04 17:00:00+00:00,600.5855667198043
2025-04-04 18:00:00+00:00,563.9635512978639
2025-04-04 19:00:00+00:00,595.1841022466285
2025-04-07 13:00:00+00:00,421.58763677198357
2025-04-07 14:00:00+00:00,307.43000908806516
2025-04-07 15:00:00+00:00,393.0556615743872
2025-04-07 16:00:00+00:00,466.0253147836883
2025-04-07 17:00:00+00:00,460.16172843372067
2025-04-07 18:00:00+00:00,398.66811326551164
2025-04-07 19:00:00+00:00,449.5685092322074
2025-04-08 13:00:00+00:00,457.43173060141146
2025-04-08 14:00:00+00:00,297.6011230853283
2025-04-08 15:00:00+00:00,339.6131389245306
2025-04-08 16:00:00+00:00,157.37189606072297
2025-04-08 17:00:00+00:00,208.82139629292976
2025-04-08 18:00:00+00:00,169.6766639505591
2025-04-08 19:00:00+00:00,169.00121734700463
2025-04-09 13:00:00+00:00,293.38214477057574
2025-04-09 14:00:00+00:00,324.3397962449001
2025-04-09 15:00:00+00:00,340.6582034836596
2025-04-09 16:00:00+00:00,641.8608654529551
2025-04-09 17:00:00+00:00,759.6154646345523
2025-04-09 18:00:00+00:00,709.9891764938351
2025-04-09 19:00:00+00:00,674.7410736294663
2025-04-10 13:00:00+00:00,186.22116353141223
2025-04-10 14:00:00+00:00,153.96349367942648
2025-04-10 15:00:00+00:00,29.27347842898483
2025-04-10 16:00:00+00:00,36.70886112133741
2025-04-10 17:00:00+00:00,80.53229584858687
2025-04-10 18:00:00+00:00,-12.886000636813321
2025-04-10 19:00:00+00:00,82.1876432544271
2025-04-11 13:00:00+00:00,50.95421729580158
2025-04-11 14:00:00+00:00,114.38372139360828
2025-04-11 15:00:00+00:00,191.68403910248048
2025-04-11 16:00:00+00:00,254.09189949283314
2025-04-11 17:00:00+00:00,311.84097412013097
2025-04-11 18:00:00+00:00,387.54979082378554
2025-04-11 19:00:00+00:00,350.2027943286364
2025-04-14 13:00:00+00:00,326.82658439320664
2025-04-14 14:00:00+00:00,256.9039199194377
2025-04-14 15:00:00+00:00,229.44959862755798
2025-04-14 16:00:00+00:00,223.55617088999503
2025-04-14 17:00:00+00:00,279.4767549791264
2025-04-14 18:00:00+00:00,263.2833406398892
2025-04-14 19:00:00+00:00,288.0030643388576
2025-04-15 13:00:00+00:00,325.6551861734601
2025-04-15 14:00:00+00:00,328.330503267192
2025-04-15 15:00:00+00:00,310.5860248369303
2025-04-15 16:00:00+00:00,295.7400001047104
2025-04-15 17:00:00+00:00,295.7936984941813
2025-04-15 18:00:00+00:00,335.83371818852294
2025-04-15 19:00:00+00:00,320.6419873586257
2025-04-16 13:00:00+00:00,416.72769111451953
2025-04-16 14:00:00+00:00,424.6737990678454
2025-04-16 15:00:00+00:00,429.06874619709953
2025-04-16 16:00:00+00:00,466.5093092092071
2025-04-16 17:00:00+00:00,398.92182655481355
2025-04-16 18:00:00+00:00,360.6894438760131
2025-04-16 19:00:00+00:00,382.96370676868025
2025-04-17 13:00:00+00:00,512.9843252995752
2025-04-17 14:00:00+00:00,551.2318750420965
2025-04-17 15:00:00+00:00,642.1969804805174
2025-04-17 16:00:00+00:00,580.6790834616468
2025-04-17 17:00:00+00:00,612.431334371133
2025-04-17 18:00:00+00:00,576.6349771182211
2025-04-17 19:00:00+00:00,506.68703715829974
2025-04-21 13:00:00+00:00,389.03094400520126
2025-04-21 14:00:00+00:00,393.04610492271036
2025-04-21 15:00:00+00:00,370.14873215187976
2025-04-21 16:00:00+00:00,324.5738161577579
2025-04-21 17:00:00+00:00,327.6911057678476
2025-04-21 18:00:00+00:00,359.0266596471294
2025-04-21 19:00:00+00:00,421.3883797423165
2025-04-22 13:00:00+00:00,515.2675037093296
2025-04-22 14:00:00+00:00,537.1890184119297
2025-04-22 15:00:00+00:00,590.723198483158
2025-04-22 16:00:00+00:00,487.99634090939605
2025-04-22 17:00:00+00:00,528.751618514579
2025-04-22 18:00:00+00:00,536.5439589361325
2025-04-22 19:00:00+00:00,523.278873635575
2025-04-23 13:00:00+00:00,473.2873072920014
2025-04-23 14:00:00+00:00,439.1735941551067
2025-04-23 15:00:00+00:00,454.7647294721528
2025-04-23 16:00:00+00:00,503.9114903903012
2025-04-23 17:00:00+00:00,505.6043925023497
2025-04-23 18:00:00+00:00,463.96655410130273
2025-04-23 19:00:00+00:00,515.0766884245827
2025-04-24 13:00:00+00:00,621.6172159812523
2025-04-24 14:00:00+00:00,622.7851519199259
2025-04-24 15:00:00+00:00,651.9473928139762
2025-04-24 16:00:00+00:00,675.0471926044104
2025-04-24 17:00:00+00:00,669.9670334238078
2025-04-24 18:00:00+00:00,634.8784400435769
2025-04-24 19:00:00+00:00,673.0972814326742
2025-04-25 13:00:00+00:00,633.210677541172
2025-04-25 14:00:00+00:00,646.6750763972066
2025-04-25 15:00:00+00:00,655.2879629662955
2025-04-25 16:00:00+00:00,611.3794147533963
2025-04-25 17:00:00+00:00,606.3030708822938
2025-04-25 18:00:00+00:00,619.3493315571886
2025-04-25 19:00:00+00:00,636.2332744411649
2025-04-28 13:00:00+00:00,662.8666247367223
2025-04-28 14:00:00+00:00,632.611424664882
2025-04-28 15:00:00+00:00,680.1813872040258
2025-04-28 16:00:00+00:00,659.111936184659
2025-04-28 17:00:00+00:00,705.7515097245131
2025-04-28 18:00:00+00:00,709.6797662576926
2025-04-28 19:00:00+00:00,702.3339642539407
2025-04-29 13:00:00+00:00,566.5993106188289
2025-04-29 14:00:00+00:00,662.460075717669
2025-04-29 15:00:00+00:00,645.670400695004
2025-04-29 16:00:00+00:00,654.6435747167179
2025-04-29 17:00:00+00:00,664.8328033355325
2025-04-29 18:00:00+00:00,654.2638861787855
2025-04-29 19:00:00+00:00,599.7278101738244
2025-04-30 13:00:00+00:00,455.5679830766283
2025-04-30 14:00:00+00:00,455.9441106349932
2025-04-30 15:00:00+00:00,326.6424548385413
2025-04-30 16:00:00+00:00,337.79752743443873
2025-04-30 17:00:00+00:00,341.6529270353668
2025-04-30 18:00:00+00:00,361.4684336934124
2025-04-30 19:00:00+00:00,397.9450614950336
2025-05-01 13:00:00+00:00,576.8275664813937
2025-05-01 14:00:00+00:00,591.8854649000165
2025-05-01 15:00:00+00:00,498.13359759907615
2025-05-01 16:00:00+00:00,519.1254932271027
2025-05-01 17:00:00+00:00,586.9939519279345
2025-05-01 18:00:00+00:00,575.8186058824991
2025-05-01 19:00:00+00:00,512.2869512912681
2025-05-02 13:00:00+00:00,367.4918903201571
2025-05-02 14:00:00+00:00,356.9300862148219
2025-05-02 15:00:00+00:00,371.5331257419836
2025-05-02 16:00:00+00:00,277.6611575932607
2025-05-02 17:00:00+00:00,392.77633501625115
2025-05-02 18:00:00+00:00,342.37646695764073
2025-05-02 19:00:00+00:00,390.566547182087
2025-05-05 13:00:00+00:00,207.3023792084076
2025-05-05 14:00:00+00:00,208.98802680367316
2025-05-05 15:00:00+00:00,228.7629752762628
2025-05-05 16:00:00+00:00,205.01820716316183
2025-05-05 17:00:00+00:00,225.42198027515593
2025-05-05 18:00:00+00:00,231.28956373986207
2025-05-05 19:00:00+00:00,210.34310706264566
2025-05-06 13:00:00+00:00,300.21897516282917
2025-05-06 14:00:00+00:00,310.4410688425938
2025-05-06 15:00:00+00:00,292.2003507197979
2025-05-06 16:00:00+00:00,279.17122736365786
2025-05-06 17:00:00+00:00,285.54407233890856
2025-05-06 18:00:00+00:00,274.37286734613417
2025-05-06 19:00:00+00:00,263.0846636833127
2025-05-07 13:00:00+00:00,179.86138417620413
2025-05-07 14:00:00+00:00,169.01226707235597
2025-05-07 15:00:00+00:00,185.03567441004765
2025-05-07 16:00:00+00:00,213.9594960004851
2025-05-07 17:00:00+00:00,167.9466046047442
2025-05-07 18:00:00+00:00,176.1372346066893
2025-05-07 19:00:00+00:00,206.52368845934313
2025-05-08 13:00:00+00:00,331.9473803568259
2025-05-08 14:00:00+00:00,376.5479095517839
2025-05-08 15:00:00+00:00,400.98766212619273
2025-05-08 16:00:00+00:00,347.2286918753253
2025-05-08 17:00:00+00:00,319.8492373594507
2025-05-08 18:00:00+00:00,322.2872613427076
2025-05-08 19:00:00+00:00,260.8016630706339
2025-05-09 13:00:00+00:00,272.4751260947079
2025-05-09 14:00:00+00:00,283.4697596271251
2025-05-09 15:00:00+00:00,277.0479034351117
2025-05-09 16:00:00+00:00,288.83165673249727
2025-05-09 17:00:00+00:00,296.68772228341214
2025-05-09 18:00:00+00:00,321.37302740695327
2025-05-09 19:00:00+00:00,347.4326926035131
2025-05-12 13:00:00+00:00,556.4016946503812
2025-05-12 14:00:00+00:00,464.03621271971804
2025-05-12 15:00:00+00:00,466.76066230147427
2025-05-12 16:00:00+00:00,484.7532719113324
2025-05-12 17:00:00+00:00,464.59593499908686
2025-05-12 18:00:00+00:00,464.78992027376887
2025-05-12 19:00:00+00:00,446.6059040196903
2025-05-13 13:00:00+00:00,487.3754819750692
2025-05-13 14:00:00+00:00,544.1137300037531
2025-05-13 15:00:00+00:00,578.1458906345622
2025-05-13 16:00:00+00:00,612.5720062004616
2025-05-13 17:00:00+00:00,612.1820483801117
2025-05-13 18:00:00+00:00,604.1135403560913
2025-05-13 19:00:00+00:00,567.6903684014139
2025-05-14 13:00:00+00:00,459.2818957414928
2025-05-14 14:00:00+00:00,506.2020204790034
2025-05-14 15:00:00+00:00,496.31848836500853
2025-05-14 16:00:00+00:00,472.70842502740925
2025-05-14 17:00:00+00:00,448.4398056476898
2025-05-14 18:00:00+00:00,494.0431445451289
2025-05-14 19:00:00+00:00,498.887512300168
2025-05-15 13:00:00+00:00,374.1189367365068
2025-05-15 14:00:00+00:00,411.22036939613605
2025-05-15 15:00:00+00:00,468.8023192298741
2025-05-15 16:00:00+00:00,456.6388773945554
2025-05-15 17:00:00+00:00,452.4717767089757
2025-05-15 18:00:00+00:00,483.7536015796318
2025-05-15 19:00:00+00:00,502.9130401739054
2025-05-16 13:00:00+00:00,451.5596626018551
2025-05-16 14:00:00+00:00,455.0449303165257
2025-05-16 15:00:00+00:00,484.5457554430034
2025-05-16 16:00:00+00:00,501.1509633804367
2025-05-16 17:00:00+00:00,483.2605172567626
2025-05-16 18:00:00+00:00,471.62361530340314
2025-05-16 19:00:00+00:00,471.4156174604784
2025-05-19 13:00:00+00:00,355.7032525925524
2025-05-19 14:00:00+00:00,357.0685704033222
2025-05-19 15:00:00+00:00,372.70871693712803
2025-05-19 16:00:00+00:00,398.4235596866238
2025-05-19 17:00:00+00:00,373.89635753863115
2025-05-19 18:00:00+00:00,346.81704889835953
2025-05-19 19:00:00+00:00,378.5407556332652
2025-05-20 13:00:00+00:00,370.0655660325426
2025-05-20 14:00:00+00:00,359.8733250267589
2025-05-20 15:00:00+00:00,347.4537464959814
2025-05-20 16:00:00+00:00,332.4449805653842
2025-05-20 17:00:00+00:00,312.99387974596857
2025-05-20 18:00:00+00:00,308.9293673953583
2025-05-20 19:00:00+00:00,308.2632419725428
2025-05-21 13:00:00+00:00,290.6113251373612
2025-05-21 14:00:00+00:00,295.07711926122516
2025-05-21 15:00:00+00:00,314.5995033043081
2025-05-21 16:00:00+00:00,315.5441587007519
2025-05-21 17:00:00+00:00,343.9677434839146
2025-05-21 18:00:00+00:00,329.3192650059439
2025-05-21 19:00:00+00:00,289.1376612133772
2025-05-22 13:00:00+00:00,181.5284450431914
2025-05-22 14:00:00+00:00,164.15195600389728
2025-05-22 15:00:00+00:00,226.63467188386903
2025-05-22 16:00:00+00:00,238.62911163951952
2025-05-22 17:00:00+00:00,247.17158734916902
2025-05-22 18:00:00+00:00,260.15870008253296
2025-05-22 19:00:00+00:00,228.9329890550069
2025-05-23 13:00:00+00:00,170.99844910794639
2025-05-23 14:00:00+00:00,180.57120684916936
2025-05-23 15:00:00+00:00,153.32189120735248
2025-05-23 16:00:00+00:00,186.67109267411533
2025-05-23 17:00:00+00:00,199.6838538673177
2025-05-23 18:00:00+00:00,186.9095119777293
2025-05-23 19:00:00+00:00,188.92684181604173
2025-05-27 13:00:00+00:00,187.69576082109907
2025-05-27 14:00:00+00:00,211.59694821628838
2025-05-27 15:00:00+00:00,225.16575165840214
2025-05-27 16:00:00+00:00,235.02943517164894
2025-05-27 17:00:00+00:00,222.4801765686402
2025-05-27 18:00:00+00:00,222.59414909278118
2025-05-27 19:00:00+00:00,233.7770645189087
2025-05-28 13:00:00+00:00,247.47894463066808
2025-05-28 14:00:00+00:00,233.9880432683116
2025-05-28 15:00:00+00:00,263.68897061284264
2025-05-28 16:00:00+00:00,267.23513760368974
2025-05-28 17:00:00+00:00,232.6211313047246
2025-05-28 18:00:00+00:00,219.12330750875475
2025-05-28 19:00:00+00:00,233.9013447876939
2025-05-29 13:00:00+00:00,220.47538428848128
2025-05-29 14:00:00+00:00,198.68423217071796
2025-05-29 15:00:00+00:00,172.23273186770317
2025-05-29 16:00:00+00:00,189.34752467460297
2025-05-29 17:00:00+00:00,185.98183646808548
2025-05-29 18:00:00+00:00,170.45908857880428
2025-05-29 19:00:00+00:00,156.11920900774396
2025-05-30 13:00:00+00:00,86.78751088964803
2025-05-30 14:00:00+00:00,80.95434600036937
2025-05-30 15:00:00+00:00,20.587103663499803
2025-05-30 16:00:00+00:00,81.57176378394814
2025-05-30 17:00:00+00:00,74.55007464255246
2025-05-30 18:00:00+00:00,96.53821551424524
2025-05-30 19:00:00+00:00,60.14447138476362
2025-06-02 13:00:00+00:00,253.58329553003009
2025-06-02 14:00:00+00:00,251.20210597313826
2025-06-02 15:00:00+00:00,279.6753920310323
2025-06-02 16:00:00+00:00,280.3400650165279
2025-06-02 17:00:00+00:00,241.09073879573884
2025-06-02 18:00:00+00:00,257.14769234463097
2025-06-02 19:00:00+00:00,279.22183035258684
2025-06-03 13:00:00+00:00,302.9293089686628
2025-06-03 14:00:00+00:00,375.01633693103054
2025-06-03 15:00:00+00:00,394.9316822737113
2025-06-03 16:00:00+00:00,386.7337379968403
2025-06-03 17:00:00+00:00,363.90940318766474
2025-06-03 18:00:00+00:00,355.9172030905834
2025-06-03 19:00:00+00:00,345.2795385737513
2025-06-04 13:00:00+00:00,429.91606768165866
2025-06-04 14:00:00+00:00,359.3194432890825
2025-06-04 15:00:00+00:00,287.6214405465656
2025-06-04 16:00:00+00:00,288.8551001719687
2025-06-04 17:00:00+00:00,280.9343158562025
2025-06-04 18:00:00+00:00,293.7568711400791
2025-06-04 19:00:00+00:00,264.7027894043222
2025-06-05 13:00:00+00:00,261.78148362628497
2025-06-05 14:00:00+00:00,273.8295117865276
2025-06-05 15:00:00+00:00,290.5303074649433
2025-06-05 16:00:00+00:00,306.11974780214035
2025-06-05 17:00:00+00:00,279.9649310936563
2025-06-05 18:00:00+00:00,270.72179011449754
2025-06-05 19:00:00+00:00,278.6821389802281
2025-06-06 13:00:00+00:00,451.1599590463696
2025-06-06 14:00:00+00:00,454.7818088226517
2025-06-06 15:00:00+00:00,462.3727271464793
2025-06-06 16:00:00+00:00,459.57444914758776
2025-06-06 17:00:00+00:00,463.89680948512154
2025-06-06 18:00:00+00:00,471.02659674981044
2025-06-06 19:00:00+00:00,476.1488270871648
2025-06-09 13:00:00+00:00,463.162766005184
2025-06-09 14:00:00+00:00,484.0050139093417
2025-06-09 15:00:00+00:00,493.709164676374
2025-06-09 16:00:00+00:00,534.1784810958795
2025-06-09 17:00:00+00:00,542.7220321482528
2025-06-09 18:00:00+00:00,533.9658665010885
2025-06-09 19:00:00+00:00,502.1818856315135
2025-06-10 13:00:00+00:00,748.7792022597238
2025-06-10 14:00:00+00:00,810.2703713551224
2025-06-10 15:00:00+00:00,782.7245398197904
2025-06-10 16:00:00+00:00,747.2719536623134
2025-06-10 17:00:00+00:00,707.6884878392791
2025-06-10 18:00:00+00:00,695.5953355921353
2025-06-10 19:00:00+00:00,708.3464750946965
2025-06-11 13:00:00+00:00,659.593559126759
2025-06-11 14:00:00+00:00,671.2098727666739
2025-06-11 15:00:00+00:00,671.2669008795698
2025-06-11 16:00:00+00:00,700.0880128637746
2025-06-11 17:00:00+00:00,797.8509253819931
2025-06-11 18:00:00+00:00,850.0865643871849
2025-06-11 19:00:00+00:00,850.0865643871849
2025-06-12 13:00:00+00:00,850.0865643871849
2025-06-12 14:00:00+00:00,850.0865643871849
2025-06-12 15:00:00+00:00,850.0865643871849
2025-06-12 16:00:00+00:00,850.0865643871849
2025-06-12 17:00:00+00:00,850.0865643871849
2025-06-12 18:00:00+00:00,850.0865643871849
2025-06-12 19:00:00+00:00,850.0865643871849
2025-06-13 13:00:00+00:00,850.0865643871849
2025-06-13 14:00:00+00:00,850.0865643871849
2025-06-13 15:00:00+00:00,850.0865643871849
2025-06-13 16:00:00+00:00,850.0865643871849
2025-06-13 17:00:00+00:00,850.0865643871849
2025-06-13 18:00:00+00:00,850.0865643871849
2025-06-13 19:00:00+00:00,850.0865643871849
2025-06-16 13:00:00+00:00,850.0865643871849
2025-06-16 14:00:00+00:00,850.0865643871849
2025-06-16 15:00:00+00:00,850.0865643871849
2025-06-16 16:00:00+00:00,850.0865643871849
2025-06-16 17:00:00+00:00,850.0865643871849
2025-06-16 18:00:00+00:00,850.0865643871849
2025-06-16 19:00:00+00:00,850.0865643871849
2025-06-17 13:00:00+00:00,850.0865643871849
2025-06-17 14:00:00+00:00,850.0865643871849
2025-06-17 15:00:00+00:00,850.0865643871849
2025-06-17 16:00:00+00:00,850.0865643871849
2025-06-17 17:00:00+00:00,850.0865643871849
2025-06-17 18:00:00+00:00,850.0865643871849
2025-06-17 19:00:00+00:00,850.0865643871849
2025-06-18 13:00:00+00:00,850.0865643871849
2025-06-18 14:00:00+00:00,850.0865643871849
2025-06-18 15:00:00+00:00,850.0865643871849
2025-06-18 16:00:00+00:00,850.0865643871849
2025-06-18 17:00:00+00:00,850.0865643871849
2025-06-18 18:00:00+00:00,850.0865643871849
2025-06-18 19:00:00+00:00,850.0865643871849
2025-06-20 13:00:00+00:00,850.0865643871849
2025-06-20 14:00:00+00:00,850.0865643871849
2025-06-20 15:00:00+00:00,850.0865643871849
2025-06-20 16:00:00+00:00,850.0865643871849
2025-06-20 17:00:00+00:00,850.0865643871849
2025-06-20 18:00:00+00:00,850.0865643871849
2025-06-20 19:00:00+00:00,850.0865643871849
2025-06-23 13:00:00+00:00,850.0865643871849
2025-06-23 14:00:00+00:00,850.0865643871849
2025-06-23 15:00:00+00:00,850.0865643871849
2025-06-23 16:00:00+00:00,850.0865643871849
2025-06-23 17:00:00+00:00,850.0865643871849
2025-06-23 18:00:00+00:00,850.0865643871849
2025-06-23 19:00:00+00:00,850.0865643871849
2025-06-24 13:00:00+00:00,850.0865643871849
2025-06-24 14:00:00+00:00,850.0865643871849
2025-06-24 15:00:00+00:00,850.0865643871849
2025-06-24 16:00:00+00:00,850.0865643871849
2025-06-24 17:00:00+00:00,850.0865643871849
2025-06-24 18:00:00+00:00,850.0865643871849
2025-06-24 19:00:00+00:00,850.0865643871849
2025-06-25 13:00:00+00:00,850.0865643871849
2025-06-25 14:00:00+00:00,850.0865643871849
2025-06-25 15:00:00+00:00,850.0865643871849
2025-06-25 16:00:00+00:00,850.0865643871849
2025-06-25 17:00:00+00:00,850.0865643871849
2025-06-25 18:00:00+00:00,850.0865643871849
2025-06-25 19:00:00+00:00,850.0865643871849
2025-06-26 13:00:00+00:00,850.0865643871849
2025-06-26 14:00:00+00:00,850.0865643871849
2025-06-26 15:00:00+00:00,850.0865643871849
2025-06-26 16:00:00+00:00,850.0865643871849
2025-06-26 17:00:00+00:00,850.0865643871849
2025-06-26 18:00:00+00:00,850.0865643871849
2025-06-26 19:00:00+00:00,850.0865643871849
2025-06-27 13:00:00+00:00,850.0865643871849
2025-06-27 14:00:00+00:00,850.0865643871849
2025-06-27 15:00:00+00:00,850.0865643871849
2025-06-27 16:00:00+00:00,850.0865643871849
2025-06-27 17:00:00+00:00,850.0865643871849
2025-06-27 18:00:00+00:00,850.0865643871849
2025-06-27 19:00:00+00:00,850.0865643871849
2025-06-30 13:00:00+00:00,850.0865643871849
2025-06-30 14:00:00+00:00,850.0865643871849
2025-06-30 15:00:00+00:00,850.0865643871849
2025-06-30 16:00:00+00:00,850.0865643871849
2025-06-30 17:00:00+00:00,850.0865643871849
2025-06-30 18:00:00+00:00,850.0865643871849
2025-06-30 19:00:00+00:00,850.0865643871849
2025-07-01 13:00:00+00:00,850.0865643871849
2025-07-01 14:00:00+00:00,850.0865643871849
2025-07-01 15:00:00+00:00,850.0865643871849
2025-07-01 16:00:00+00:00,850.0865643871849
2025-07-01 17:00:00+00:00,850.0865643871849
2025-07-01 18:00:00+00:00,850.0865643871849
2025-07-01 19:00:00+00:00,850.0865643871849
2025-07-02 13:00:00+00:00,850.0865643871849
2025-07-02 14:00:00+00:00,850.0865643871849
2025-07-02 15:00:00+00:00,850.0865643871849
2025-07-02 16:00:00+00:00,850.0865643871849
2025-07-02 17:00:00+00:00,850.0865643871849
2025-07-02 18:00:00+00:00,850.0865643871849
2025-07-02 19:00:00+00:00,850.0865643871849
2025-07-03 13:00:00+00:00,850.0865643871849
2025-07-03 14:00:00+00:00,850.0865643871849
2025-07-03 15:00:00+00:00,850.0865643871849
2025-07-07 13:00:00+00:00,850.0865643871849
2025-07-07 14:00:00+00:00,850.0865643871849
2025-07-07 15:00:00+00:00,850.0865643871849
2025-07-07 16:00:00+00:00,850.0865643871849
2025-07-07 17:00:00+00:00,850.0865643871849
2025-07-07 18:00:00+00:00,850.0865643871849
2025-07-07 19:00:00+00:00,850.0865643871849
2025-07-08 13:00:00+00:00,850.0865643871849
2025-07-08 14:00:00+00:00,850.0865643871849
2025-07-08 15:00:00+00:00,850.0865643871849
2025-07-08 16:00:00+00:00,850.0865643871849
2025-07-08 17:00:00+00:00,850.0865643871849
2025-07-08 18:00:00+00:00,850.0865643871849
2025-07-08 19:00:00+00:00,850.0865643871849
2025-07-09 13:00:00+00:00,850.0865643871849
2025-07-09 14:00:00+00:00,850.0865643871849
2025-07-09 15:00:00+00:00,850.0865643871849
2025-07-09 16:00:00+00:00,850.0865643871849
2025-07-09 17:00:00+00:00,850.0865643871849
2025-07-09 18:00:00+00:00,850.0865643871849
2025-07-09 19:00:00+00:00,850.0865643871849
2025-07-10 13:00:00+00:00,850.0865643871849
2025-07-10 14:00:00+00:00,850.0865643871849
2025-07-10 15:00:00+00:00,850.0865643871849
2025-07-10 16:00:00+00:00,850.0865643871849
2025-07-10 17:00:00+00:00,850.0865643871849
2025-07-10 18:00:00+00:00,850.0865643871849
2025-07-10 19:00:00+00:00,850.0865643871849
2025-07-11 13:00:00+00:00,850.0865643871849
2025-07-11 14:00:00+00:00,850.0865643871849
2025-07-11 15:00:00+00:00,850.0865643871849
2025-07-11 16:00:00+00:00,850.0865643871849
2025-07-11 17:00:00+00:00,850.0865643871849
2025-07-11 18:00:00+00:00,850.0865643871849
2025-07-11 19:00:00+00:00,850.0865643871849
2025-07-14 13:00:00+00:00,850.0865643871849
2025-07-14 14:00:00+00:00,850.0865643871849
2025-07-14 15:00:00+00:00,850.0865643871849
2025-07-14 16:00:00+00:00,850.0865643871849
2025-07-14 17:00:00+00:00,850.0865643871849
2025-07-14 18:00:00+00:00,850.0865643871849
2025-07-14 19:00:00+00:00,850.0865643871849
2025-07-15 13:00:00+00:00,850.0865643871849
2025-07-15 14:00:00+00:00,850.0865643871849
2025-07-15 15:00:00+00:00,850.0865643871849
2025-07-15 16:00:00+00:00,850.0865643871849
2025-07-15 17:00:00+00:00,850.0865643871849
2025-07-15 18:00:00+00:00,850.0865643871849
2025-07-15 19:00:00+00:00,850.0865643871849
2025-07-16 13:00:00+00:00,850.0865643871849
2025-07-16 14:00:00+00:00,850.0865643871849
2025-07-16 15:00:00+00:00,850.0865643871849
2025-07-16 16:00:00+00:00,850.0865643871849
2025-07-16 17:00:00+00:00,850.0865643871849
2025-07-16 18:00:00+00:00,850.0865643871849
2025-07-16 19:00:00+00:00,850.0865643871849
2025-07-17 13:00:00+00:00,850.0865643871849
2025-07-17 14:00:00+00:00,850.0865643871849
2025-07-17 15:00:00+00:00,850.0865643871849
2025-07-17 16:00:00+00:00,850.0865643871849
2025-07-17 17:00:00+00:00,850.0865643871849
2025-07-17 18:00:00+00:00,850.0865643871849
2025-07-17 19:00:00+00:00,850.0865643871849
2025-07-18 13:00:00+00:00,850.0865643871849
2025-07-18 14:00:00+00:00,850.0865643871849
2025-07-18 15:00:00+00:00,850.0865643871849
2025-07-18 16:00:00+00:00,850.0865643871849
2025-07-18 17:00:00+00:00,850.0865643871849
2025-07-18 18:00:00+00:00,850.0865643871849
2025-07-18 19:00:00+00:00,850.0865643871849
2025-07-21 13:00:00+00:00,850.0865643871849
2025-07-21 14:00:00+00:00,850.0865643871849
2025-07-21 15:00:00+00:00,850.0865643871849
2025-07-21 16:00:00+00:00,850.0865643871849
2025-07-21 17:00:00+00:00,850.0865643871849
2025-07-21 18:00:00+00:00,850.0865643871849
2025-07-21 19:00:00+00:00,850.0865643871849
2025-07-22 13:00:00+00:00,850.0865643871849
2025-07-22 14:00:00+00:00,850.0865643871849
2025-07-22 15:00:00+00:00,850.0865643871849
2025-07-22 16:00:00+00:00,850.0865643871849
2025-07-22 17:00:00+00:00,850.0865643871849
2025-07-22 18:00:00+00:00,850.0865643871849
2025-07-22 19:00:00+00:00,850.0865643871849
2025-07-23 13:00:00+00:00,850.0865643871849
2025-07-23 14:00:00+00:00,850.0865643871849
2025-07-23 15:00:00+00:00,850.0865643871849
2025-07-23 16:00:00+00:00,850.0865643871849
2025-07-23 17:00:00+00:00,850.0865643871849
2025-07-23 18:00:00+00:00,850.0865643871849
2025-07-23 19:00:00+00:00,850.0865643871849
2025-07-24 13:00:00+00:00,850.0865643871849
2025-07-24 14:00:00+00:00,850.0865643871849
2025-07-24 15:00:00+00:00,850.0865643871849
2025-07-24 16:00:00+00:00,850.0865643871849
2025-07-24 17:00:00+00:00,850.0865643871849
2025-07-24 18:00:00+00:00,850.0865643871849
2025-07-24 19:00:00+00:00,850.0865643871849
2025-07-25 13:00:00+00:00,850.0865643871849
2025-07-25 14:00:00+00:00,850.0865643871849
2025-07-25 15:00:00+00:00,850.0865643871849
2025-07-25 16:00:00+00:00,850.0865643871849
2025-07-25 17:00:00+00:00,850.0865643871849
2025-07-25 18:00:00+00:00,850.0865643871849
2025-07-25 19:00:00+00:00,850.0865643871849
2025-07-28 13:00:00+00:00,850.0865643871849
2025-07-28 14:00:00+00:00,850.0865643871849
2025-07-28 15:00:00+00:00,850.0865643871849
2025-07-28 16:00:00+00:00,850.0865643871849
2025-07-28 17:00:00+00:00,850.0865643871849
2025-07-28 18:00:00+00:00,850.0865643871849
2025-07-28 19:00:00+00:00,850.0865643871849
2025-07-29 13:00:00+00:00,850.0865643871849
2025-07-29 14:00:00+00:00,850.0865643871849
2025-07-29 15:00:00+00:00,850.0865643871849
2025-07-29 16:00:00+00:00,850.0865643871849
2025-07-29 17:00:00+00:00,850.0865643871849
2025-07-29 18:00:00+00:00,850.0865643871849
2025-07-29 19:00:00+00:00,850.0865643871849
2025-07-30 13:00:00+00:00,850.0865643871849
2025-07-30 14:00:00+00:00,850.0865643871849
2025-07-30 15:00:00+00:00,850.0865643871849
2025-07-30 16:00:00+00:00,850.0865643871849
2025-07-30 17:00:00+00:00,850.0865643871849
2025-07-30 18:00:00+00:00,850.0865643871849
2025-07-30 19:00:00+00:00,850.0865643871849
2025-07-31 13:00:00+00:00,850.0865643871849
2025-07-31 14:00:00+00:00,850.0865643871849
2025-07-31 15:00:00+00:00,850.0865643871849
2025-07-31 16:00:00+00:00,850.0865643871849
2025-07-31 17:00:00+00:00,850.0865643871849
2025-07-31 18:00:00+00:00,850.0865643871849
2025-07-31 19:00:00+00:00,850.0865643871849
2025-08-01 13:00:00+00:00,850.0865643871849
2025-08-01 14:00:00+00:00,850.0865643871849
2025-08-01 15:00:00+00:00,850.0865643871849
2025-08-01 16:00:00+00:00,850.0865643871849
2025-08-01 17:00:00+00:00,850.0865643871849
2025-08-01 18:00:00+00:00,850.0865643871849
2025-08-01 19:00:00+00:00,850.0865643871849
2025-08-04 13:00:00+00:00,850.0865643871849
2025-08-04 14:00:00+00:00,850.0865643871849
2025-08-04 15:00:00+00:00,850.0865643871849
2025-08-04 16:00:00+00:00,850.0865643871849
2025-08-04 17:00:00+00:00,850.0865643871849
2025-08-04 18:00:00+00:00,850.0865643871849
2025-08-04 19:00:00+00:00,850.0865643871849
2025-08-05 13:00:00+00:00,850.0865643871849
2025-08-05 14:00:00+00:00,850.0865643871849
2025-08-05 15:00:00+00:00,850.0865643871849
2025-08-05 16:00:00+00:00,850.0865643871849
2025-08-05 17:00:00+00:00,850.0865643871849
2025-08-05 18:00:00+00:00,850.0865643871849
2025-08-05 19:00:00+00:00,850.0865643871849
2025-08-06 13:00:00+00:00,850.0865643871849
2025-08-06 14:00:00+00:00,850.0865643871849
2025-08-06 15:00:00+00:00,850.0865643871849
2025-08-06 16:00:00+00:00,850.0865643871849
2025-08-06 17:00:00+00:00,850.0865643871849
2025-08-06 18:00:00+00:00,850.0865643871849
2025-08-06 19:00:00+00:00,850.0865643871849
2025-08-07 13:00:00+00:00,850.0865643871849
2025-08-07 14:00:00+00:00,850.0865643871849
2025-08-07 15:00:00+00:00,850.0865643871849
2025-08-07 16:00:00+00:00,850.0865643871849
2025-08-07 17:00:00+00:00,850.0865643871849
2025-08-07 18:00:00+00:00,850.0865643871849
2025-08-07 19:00:00+00:00,850.0865643871849
2025-08-08 13:00:00+00:00,850.0865643871849
2025-08-08 14:00:00+00:00,850.0865643871849
2025-08-08 15:00:00+00:00,850.0865643871849
2025-08-08 16:00:00+00:00,850.0865643871849
2025-08-08 17:00:00+00:00,850.0865643871849
2025-08-08 18:00:00+00:00,850.0865643871849
2025-08-08 19:00:00+00:00,850.0865643871849
2025-08-11 13:00:00+00:00,850.0865643871849
2025-08-11 14:00:00+00:00,850.0865643871849
2025-08-11 15:00:00+00:00,850.0865643871849
2025-08-11 16:00:00+00:00,850.0865643871849
2025-08-11 17:00:00+00:00,850.0865643871849
2025-08-11 18:00:00+00:00,850.0865643871849
2025-08-11 19:00:00+00:00,850.0865643871849
2025-08-12 13:00:00+00:00,850.0865643871849
2025-08-12 14:00:00+00:00,850.0865643871849
2025-08-12 15:00:00+00:00,850.0865643871849
2025-08-12 16:00:00+00:00,850.0865643871849
2025-08-12 17:00:00+00:00,850.0865643871849
2025-08-12 18:00:00+00:00,850.0865643871849
2025-08-12 19:00:00+00:00,850.0865643871849
2025-08-13 13:00:00+00:00,850.0865643871849
2025-08-13 14:00:00+00:00,850.0865643871849
2025-08-13 15:00:00+00:00,850.0865643871849
2025-08-13 16:00:00+00:00,850.0865643871849
2025-08-13 17:00:00+00:00,850.0865643871849
2025-08-13 18:00:00+00:00,850.0865643871849
2025-08-13 19:00:00+00:00,850.0865643871849
2025-08-14 13:00:00+00:00,850.0865643871849
2025-08-14 14:00:00+00:00,850.0865643871849
2025-08-14 15:00:00+00:00,850.0865643871849
2025-08-14 16:00:00+00:00,850.0865643871849
2025-08-14 17:00:00+00:00,850.0865643871849
2025-08-14 18:00:00+00:00,850.0865643871849
2025-08-14 19:00:00+00:00,850.0865643871849
2025-08-15 13:00:00+00:00,850.0865643871849
2025-08-15 14:00:00+00:00,850.0865643871849
2025-08-15 15:00:00+00:00,850.0865643871849
2025-08-15 16:00:00+00:00,850.0865643871849
2025-08-15 17:00:00+00:00,850.0865643871849
2025-08-15 18:00:00+00:00,850.0865643871849
2025-08-15 19:00:00+00:00,850.0865643871849
2025-08-18 13:00:00+00:00,850.0865643871849
2025-08-18 14:00:00+00:00,850.0865643871849
2025-08-18 15:00:00+00:00,850.0865643871849
2025-08-18 16:00:00+00:00,850.0865643871849
2025-08-18 17:00:00+00:00,850.0865643871849
2025-08-18 18:00:00+00:00,850.0865643871849
2025-08-18 19:00:00+00:00,850.0865643871849
2025-08-19 13:00:00+00:00,850.0865643871849
2025-08-19 14:00:00+00:00,850.0865643871849
2025-08-19 15:00:00+00:00,850.0865643871849
2025-08-19 16:00:00+00:00,850.0865643871849
2025-08-19 17:00:00+00:00,850.0865643871849
2025-08-19 18:00:00+00:00,850.0865643871849
2025-08-19 19:00:00+00:00,850.0865643871849
2025-08-20 13:00:00+00:00,850.0865643871849
2025-08-20 14:00:00+00:00,850.0865643871849
2025-08-20 15:00:00+00:00,850.0865643871849
2025-08-20 16:00:00+00:00,850.0865643871849
2025-08-20 17:00:00+00:00,850.0865643871849
2025-08-20 18:00:00+00:00,850.0865643871849
2025-08-20 19:00:00+00:00,850.0865643871849
2025-08-21 13:00:00+00:00,850.0865643871849
2025-08-21 14:00:00+00:00,850.0865643871849
2025-08-21 15:00:00+00:00,850.0865643871849
2025-08-21 16:00:00+00:00,850.0865643871849
2025-08-21 17:00:00+00:00,850.0865643871849
2025-08-21 18:00:00+00:00,850.0865643871849
2025-08-21 19:00:00+00:00,850.0865643871849
2025-08-22 13:00:00+00:00,850.0865643871849
2025-08-22 14:00:00+00:00,850.0865643871849
2025-08-22 15:00:00+00:00,850.0865643871849
2025-08-22 16:00:00+00:00,850.0865643871849
2025-08-22 17:00:00+00:00,850.0865643871849
2025-08-22 18:00:00+00:00,850.0865643871849
2025-08-22 19:00:00+00:00,850.0865643871849
2025-08-25 13:00:00+00:00,850.0865643871849
2025-08-25 14:00:00+00:00,850.0865643871849
2025-08-25 15:00:00+00:00,850.0865643871849
2025-08-25 16:00:00+00:00,850.0865643871849
2025-08-25 17:00:00+00:00,850.0865643871849
2025-08-25 18:00:00+00:00,850.0865643871849
2025-08-25 19:00:00+00:00,850.0865643871849
2025-08-26 13:00:00+00:00,850.0865643871849
2025-08-26 14:00:00+00:00,850.0865643871849
2025-08-26 15:00:00+00:00,850.0865643871849
2025-08-26 16:00:00+00:00,850.0865643871849
2025-08-26 17:00:00+00:00,850.0865643871849
2025-08-26 18:00:00+00:00,850.0865643871849
2025-08-26 19:00:00+00:00,850.0865643871849
2025-08-27 13:00:00+00:00,850.0865643871849
2025-08-27 14:00:00+00:00,850.0865643871849
2025-08-27 15:00:00+00:00,850.0865643871849
2025-08-27 16:00:00+00:00,850.0865643871849
2025-08-27 17:00:00+00:00,850.0865643871849
2025-08-27 18:00:00+00:00,850.0865643871849
2025-08-27 19:00:00+00:00,850.0865643871849
2025-08-28 13:00:00+00:00,850.0865643871849
2025-08-28 14:00:00+00:00,850.0865643871849
2025-08-28 15:00:00+00:00,850.0865643871849
2025-08-28 16:00:00+00:00,850.0865643871849
2025-08-28 17:00:00+00:00,850.0865643871849
2025-08-28 18:00:00+00:00,850.0865643871849
2025-08-28 19:00:00+00:00,850.0865643871849
2025-08-29 13:00:00+00:00,850.0865643871849
2025-08-29 14:00:00+00:00,850.0865643871849
2025-08-29 15:00:00+00:00,850.0865643871849
2025-08-29 16:00:00+00:00,850.0865643871849
2025-08-29 17:00:00+00:00,850.0865643871849
2025-08-29 18:00:00+00:00,850.0865643871849
2025-08-29 19:00:00+00:00,850.0865643871849
2025-09-02 13:00:00+00:00,850.0865643871849
2025-09-02 14:00:00+00:00,850.0865643871849
2025-09-02 15:00:00+00:00,850.0865643871849
2025-09-02 16:00:00+00:00,850.0865643871849
2025-09-02 17:00:00+00:00,850.0865643871849
2025-09-02 18:00:00+00:00,850.0865643871849
2025-09-02 19:00:00+00:00,850.0865643871849
2025-09-03 13:00:00+00:00,850.0865643871849
2025-09-03 14:00:00+00:00,850.0865643871849
2025-09-03 15:00:00+00:00,850.0865643871849
2025-09-03 16:00:00+00:00,850.0865643871849
2025-09-03 17:00:00+00:00,850.0865643871849
2025-09-03 18:00:00+00:00,850.0865643871849
2025-09-03 19:00:00+00:00,850.0865643871849
2025-09-04 13:00:00+00:00,850.0865643871849
2025-09-04 14:00:00+00:00,850.0865643871849
2025-09-04 15:00:00+00:00,850.0865643871849
2025-09-04 16:00:00+00:00,850.0865643871849
2025-09-04 17:00:00+00:00,850.0865643871849
2025-09-04 18:00:00+00:00,850.0865643871849
2025-09-04 19:00:00+00:00,850.0865643871849
2025-09-05 13:00:00+00:00,850.0865643871849
2025-09-05 14:00:00+00:00,850.0865643871849
2025-09-05 15:00:00+00:00,850.0865643871849
2025-09-05 16:00:00+00:00,850.0865643871849
2025-09-05 17:00:00+00:00,850.0865643871849
2025-09-05 18:00:00+00:00,850.0865643871849
2025-09-05 19:00:00+00:00,850.0865643871849
2025-09-08 13:00:00+00:00,850.0865643871849
2025-09-08 14:00:00+00:00,850.0865643871849
2025-09-08 15:00:00+00:00,850.0865643871849
2025-09-08 16:00:00+00:00,850.0865643871849
2025-09-08 17:00:00+00:00,850.0865643871849
2025-09-08 18:00:00+00:00,850.0865643871849
2025-09-08 19:00:00+00:00,850.0865643871849
2025-09-09 13:00:00+00:00,850.0865643871849
2025-09-09 14:00:00+00:00,850.0865643871849
2025-09-09 15:00:00+00:00,850.0865643871849
2025-09-09 16:00:00+00:00,850.0865643871849
2025-09-09 17:00:00+00:00,850.0865643871849
2025-09-09 18:00:00+00:00,850.0865643871849
2025-09-09 19:00:00+00:00,850.0865643871849
2025-09-10 13:00:00+00:00,850.0865643871849
2025-09-10 14:00:00+00:00,850.0865643871849
2025-09-10 15:00:00+00:00,850.0865643871849
2025-09-10 16:00:00+00:00,850.0865643871849
2025-09-10 17:00:00+00:00,850.0865643871849
2025-09-10 18:00:00+00:00,850.0865643871849
2025-09-10 19:00:00+00:00,850.0865643871849
2025-09-11 13:00:00+00:00,850.0865643871849
2025-09-11 14:00:00+00:00,850.0865643871849
2025-09-11 15:00:00+00:00,850.0865643871849
2025-09-11 16:00:00+00:00,850.0865643871849
2025-09-11 17:00:00+00:00,850.0865643871849
2025-09-11 18:00:00+00:00,850.0865643871849
2025-09-11 19:00:00+00:00,850.0865643871849
2025-09-12 13:00:00+00:00,850.0865643871849
2025-09-12 14:00:00+00:00,850.0865643871849
2025-09-12 15:00:00+00:00,850.0865643871849
2025-09-12 16:00:00+00:00,850.0865643871849
2025-09-12 17:00:00+00:00,850.0865643871849
2025-09-12 18:00:00+00:00,850.0865643871849
2025-09-12 19:00:00+00:00,850.0865643871849
2025-09-15 13:00:00+00:00,850.0865643871849
2025-09-15 14:00:00+00:00,850.0865643871849
2025-09-15 15:00:00+00:00,850.0865643871849
2025-09-15 16:00:00+00:00,850.0865643871849
2025-09-15 17:00:00+00:00,850.0865643871849
2025-09-15 18:00:00+00:00,850.0865643871849
2025-09-15 19:00:00+00:00,850.0865643871849
2025-09-16 13:00:00+00:00,850.0865643871849
2025-09-16 14:00:00+00:00,850.0865643871849
2025-09-16 15:00:00+00:00,850.0865643871849
2025-09-16 16:00:00+00:00,850.0865643871849
2025-09-16 17:00:00+00:00,850.0865643871849
2025-09-16 18:00:00+00:00,850.0865643871849
2025-09-16 19:00:00+00:00,850.0865643871849
2025-09-17 13:00:00+00:00,850.0865643871849
2025-09-17 14:00:00+00:00,850.0865643871849
2025-09-17 15:00:00+00:00,850.0865643871849
2025-09-17 16:00:00+00:00,850.0865643871849
2025-09-17 17:00:00+00:00,850.0865643871849
2025-09-17 18:00:00+00:00,850.0865643871849
2025-09-17 19:00:00+00:00,850.0865643871849
2025-09-18 13:00:00+00:00,850.0865643871849
2025-09-18 14:00:00+00:00,850.0865643871849
2025-09-18 15:00:00+00:00,850.0865643871849
2025-09-18 16:00:00+00:00,850.0865643871849
2025-09-18 17:00:00+00:00,850.0865643871849
2025-09-18 18:00:00+00:00,850.0865643871849
2025-09-18 19:00:00+00:00,850.0865643871849
2025-09-19 13:00:00+00:00,850.0865643871849
2025-09-19 14:00:00+00:00,850.0865643871849
2025-09-19 15:00:00+00:00,850.0865643871849
2025-09-19 16:00:00+00:00,850.0865643871849
2025-09-19 17:00:00+00:00,850.0865643871849
2025-09-19 18:00:00+00:00,850.0865643871849
2025-09-19 19:00:00+00:00,850.0865643871849
2025-09-22 13:00:00+00:00,850.0865643871849
2025-09-22 14:00:00+00:00,850.0865643871849
2025-09-22 15:00:00+00:00,850.0865643871849
2025-09-22 16:00:00+00:00,850.0865643871849
2025-09-22 17:00:00+00:00,850.0865643871849
2025-09-22 18:00:00+00:00,850.0865643871849
2025-09-22 19:00:00+00:00,850.0865643871849
2025-09-23 13:00:00+00:00,850.0865643871849
2025-09-23 14:00:00+00:00,850.0865643871849
2025-09-23 15:00:00+00:00,850.0865643871849
2025-09-23 16:00:00+00:00,850.0865643871849
2025-09-23 17:00:00+00:00,850.0865643871849
2025-09-23 18:00:00+00:00,850.0865643871849
2025-09-23 19:00:00+00:00,850.0865643871849
2025-09-24 13:00:00+00:00,850.0865643871849
2025-09-24 14:00:00+00:00,850.0865643871849
2025-09-24 15:00:00+00:00,850.0865643871849
2025-09-24 16:00:00+00:00,850.0865643871849
2025-09-24 17:00:00+00:00,850.0865643871849
2025-09-24 18:00:00+00:00,850.0865643871849
2025-09-24 19:00:00+00:00,850.0865643871849
2025-09-25 13:00:00+00:00,850.0865643871849
2025-09-25 14:00:00+00:00,850.0865643871849
2025-09-25 15:00:00+00:00,850.0865643871849
2025-09-25 16:00:00+00:00,850.0865643871849
2025-09-25 17:00:00+00:00,850.0865643871849
2025-09-25 18:00:00+00:00,850.0865643871849
2025-09-25 19:00:00+00:00,850.0865643871849
2025-09-26 13:00:00+00:00,850.0865643871849
2025-09-26 14:00:00+00:00,850.0865643871849
2025-09-26 15:00:00+00:00,850.0865643871849
2025-09-26 16:00:00+00:00,850.0865643871849
2025-09-26 17:00:00+00:00,850.0865643871849
2025-09-26 18:00:00+00:00,850.0865643871849
2025-09-26 19:00:00+00:00,850.0865643871849
2025-09-29 13:00:00+00:00,850.0865643871849
2025-09-29 14:00:00+00:00,850.0865643871849
2025-09-29 15:00:00+00:00,850.0865643871849
2025-09-29 16:00:00+00:00,850.0865643871849
2025-09-29 17:00:00+00:00,850.0865643871849
2025-09-29 18:00:00+00:00,850.0865643871849
2025-09-29 19:00:00+00:00,850.0865643871849
2025-09-30 13:00:00+00:00,850.0865643871849
2025-09-30 14:00:00+00:00,850.0865643871849
2025-09-30 15:00:00+00:00,850.0865643871849
2025-09-30 16:00:00+00:00,850.0865643871849
2025-09-30 17:00:00+00:00,850.0865643871849
2025-09-30 18:00:00+00:00,850.0865643871849
2025-09-30 19:00:00+00:00,850.0865643871849
2025-10-01 13:00:00+00:00,850.0865643871849
2025-10-01 14:00:00+00:00,850.0865643871849
2025-10-01 15:00:00+00:00,850.0865643871849
2025-10-01 16:00:00+00:00,850.0865643871849
2025-10-01 17:00:00+00:00,850.0865643871849
2025-10-01 18:00:00+00:00,850.0865643871849
2025-10-01 19:00:00+00:00,850.0865643871849
2025-10-02 13:00:00+00:00,850.0865643871849
2025-10-02 14:00:00+00:00,850.0865643871849
2025-10-02 15:00:00+00:00,850.0865643871849
2025-10-02 16:00:00+00:00,850.0865643871849
2025-10-02 17:00:00+00:00,850.0865643871849
2025-10-02 18:00:00+00:00,850.0865643871849
2025-10-02 19:00:00+00:00,850.0865643871849
2025-10-03 13:00:00+00:00,850.0865643871849
2025-10-03 14:00:00+00:00,850.0865643871849
2025-10-03 15:00:00+00:00,850.0865643871849
2025-10-03 16:00:00+00:00,850.0865643871849
2025-10-03 17:00:00+00:00,850.0865643871849
2025-10-03 18:00:00+00:00,850.0865643871849
2025-10-03 19:00:00+00:00,850.0865643871849
2025-10-06 13:00:00+00:00,850.0865643871849
2025-10-06 14:00:00+00:00,850.0865643871849
2025-10-06 15:00:00+00:00,850.0865643871849
2025-10-06 16:00:00+00:00,850.0865643871849
2025-10-06 17:00:00+00:00,850.0865643871849
2025-10-06 18:00:00+00:00,850.0865643871849
2025-10-06 19:00:00+00:00,850.0865643871849
2025-10-07 13:00:00+00:00,850.0865643871849
2025-10-07 14:00:00+00:00,850.0865643871849
2025-10-07 15:00:00+00:00,850.0865643871849
2025-10-07 16:00:00+00:00,850.0865643871849
2025-10-07 17:00:00+00:00,850.0865643871849
2025-10-07 18:00:00+00:00,850.0865643871849
2025-10-07 19:00:00+00:00,850.0865643871849
2025-10-08 13:00:00+00:00,850.0865643871849
2025-10-08 14:00:00+00:00,850.0865643871849
2025-10-08 15:00:00+00:00,850.0865643871849
2025-10-08 16:00:00+00:00,850.0865643871849
2025-10-08 17:00:00+00:00,850.0865643871849
2025-10-08 18:00:00+00:00,850.0865643871849
2025-10-08 19:00:00+00:00,850.0865643871849
2025-10-09 13:00:00+00:00,850.0865643871849
2025-10-09 14:00:00+00:00,850.0865643871849
2025-10-09 15:00:00+00:00,850.0865643871849
2025-10-09 16:00:00+00:00,850.0865643871849
2025-10-09 17:00:00+00:00,850.0865643871849
2025-10-09 18:00:00+00:00,850.0865643871849
2025-10-09 19:00:00+00:00,850.0865643871849
2025-10-10 13:00:00+00:00,850.0865643871849
2025-10-10 14:00:00+00:00,850.0865643871849
2025-10-10 15:00:00+00:00,850.0865643871849
2025-10-10 16:00:00+00:00,850.0865643871849
2025-10-10 17:00:00+00:00,850.0865643871849
2025-10-10 18:00:00+00:00,850.0865643871849
2025-10-10 19:00:00+00:00,850.0865643871849
2025-10-13 13:00:00+00:00,850.0865643871849
2025-10-13 14:00:00+00:00,850.0865643871849
2025-10-13 15:00:00+00:00,850.0865643871849
2025-10-13 16:00:00+00:00,850.0865643871849
2025-10-13 17:00:00+00:00,850.0865643871849
2025-10-13 18:00:00+00:00,850.0865643871849
2025-10-13 19:00:00+00:00,850.0865643871849
2025-10-14 13:00:00+00:00,850.0865643871849
2025-10-14 14:00:00+00:00,850.0865643871849
2025-10-14 15:00:00+00:00,850.0865643871849
2025-10-14 16:00:00+00:00,850.0865643871849
2025-10-14 17:00:00+00:00,850.0865643871849
2025-10-14 18:00:00+00:00,850.0865643871849
2025-10-14 19:00:00+00:00,850.0865643871849
2025-10-15 13:00:00+00:00,850.0865643871849
2025-10-15 14:00:00+00:00,850.0865643871849
2025-10-15 15:00:00+00:00,850.0865643871849
2025-10-15 16:00:00+00:00,850.0865643871849
2025-10-15 17:00:00+00:00,850.0865643871849
2025-10-15 18:00:00+00:00,850.0865643871849
2025-10-15 19:00:00+00:00,850.0865643871849
2025-10-16 13:00:00+00:00,850.0865643871849
2025-10-16 14:00:00+00:00,850.0865643871849
2025-10-16 15:00:00+00:00,850.0865643871849
2025-10-16 16:00:00+00:00,850.0865643871849
2025-10-16 17:00:00+00:00,850.0865643871849
2025-10-16 18:00:00+00:00,850.0865643871849
2025-10-16 19:00:00+00:00,850.0865643871849
2025-10-17 13:00:00+00:00,850.0865643871849
2025-10-17 14:00:00+00:00,850.0865643871849
2025-10-17 15:00:00+00:00,850.0865643871849
2025-10-17 16:00:00+00:00,850.0865643871849
2025-10-17 17:00:00+00:00,850.0865643871849
2025-10-17 18:00:00+00:00,850.0865643871849
2025-10-17 19:00:00+00:00,850.0865643871849
2025-10-20 13:00:00+00:00,850.0865643871849
2025-10-20 14:00:00+00:00,850.0865643871849
