Date,0
2024-01-02 14:00:00+00:00,0.0
2024-01-02 15:00:00+00:00,0.0
2024-01-02 16:00:00+00:00,0.0
2024-01-02 17:00:00+00:00,0.0
2024-01-02 18:00:00+00:00,0.0
2024-01-02 19:00:00+00:00,0.0
2024-01-02 20:00:00+00:00,0.0
2024-01-03 14:00:00+00:00,0.0
2024-01-03 15:00:00+00:00,0.0
2024-01-03 16:00:00+00:00,0.0
2024-01-03 17:00:00+00:00,0.0
2024-01-03 18:00:00+00:00,0.0
2024-01-03 19:00:00+00:00,0.0
2024-01-03 20:00:00+00:00,0.0
2024-01-04 14:00:00+00:00,0.0
2024-01-04 15:00:00+00:00,0.0
2024-01-04 16:00:00+00:00,0.0
2024-01-04 17:00:00+00:00,0.0
2024-01-04 18:00:00+00:00,0.0
2024-01-04 19:00:00+00:00,0.0
2024-01-04 20:00:00+00:00,0.0
2024-01-05 14:00:00+00:00,0.0
2024-01-05 15:00:00+00:00,0.0
2024-01-05 16:00:00+00:00,0.0
2024-01-05 17:00:00+00:00,0.0
2024-01-05 18:00:00+00:00,0.0
2024-01-05 19:00:00+00:00,0.0
2024-01-05 20:00:00+00:00,0.0
2024-01-08 14:00:00+00:00,0.0
2024-01-08 15:00:00+00:00,0.0
2024-01-08 16:00:00+00:00,0.0
2024-01-08 17:00:00+00:00,0.0
2024-01-08 18:00:00+00:00,0.0
2024-01-08 19:00:00+00:00,0.0
2024-01-08 20:00:00+00:00,0.0
2024-01-09 14:00:00+00:00,0.0
2024-01-09 15:00:00+00:00,0.0
2024-01-09 16:00:00+00:00,0.0
2024-01-09 17:00:00+00:00,0.0
2024-01-09 18:00:00+00:00,0.0
2024-01-09 19:00:00+00:00,0.0
2024-01-09 20:00:00+00:00,0.0
2024-01-10 14:00:00+00:00,0.0
2024-01-10 15:00:00+00:00,0.0
2024-01-10 16:00:00+00:00,0.0
2024-01-10 17:00:00+00:00,0.0
2024-01-10 18:00:00+00:00,0.0
2024-01-10 19:00:00+00:00,0.0
2024-01-10 20:00:00+00:00,0.0
2024-01-11 14:00:00+00:00,0.0
2024-01-11 15:00:00+00:00,0.0
2024-01-11 16:00:00+00:00,0.0
2024-01-11 17:00:00+00:00,0.0
2024-01-11 18:00:00+00:00,0.0
2024-01-11 19:00:00+00:00,0.0
2024-01-11 20:00:00+00:00,0.0
2024-01-12 14:00:00+00:00,0.0
2024-01-12 15:00:00+00:00,0.0
2024-01-12 16:00:00+00:00,0.0
2024-01-12 17:00:00+00:00,0.0
2024-01-12 18:00:00+00:00,0.0
2024-01-12 19:00:00+00:00,0.0
2024-01-12 20:00:00+00:00,0.0
2024-01-16 14:00:00+00:00,0.0
2024-01-16 15:00:00+00:00,0.0
2024-01-16 16:00:00+00:00,0.0
2024-01-16 17:00:00+00:00,0.0
2024-01-16 18:00:00+00:00,0.0
2024-01-16 19:00:00+00:00,0.0
2024-01-16 20:00:00+00:00,0.0
2024-01-17 14:00:00+00:00,0.0
2024-01-17 15:00:00+00:00,0.0
2024-01-17 16:00:00+00:00,0.0
2024-01-17 17:00:00+00:00,0.0
2024-01-17 18:00:00+00:00,0.0
2024-01-17 19:00:00+00:00,0.0
2024-01-17 20:00:00+00:00,0.0
2024-01-18 14:00:00+00:00,0.0
2024-01-18 15:00:00+00:00,0.0
2024-01-18 16:00:00+00:00,0.0
2024-01-18 17:00:00+00:00,0.0
2024-01-18 18:00:00+00:00,0.0
2024-01-18 19:00:00+00:00,0.0
2024-01-18 20:00:00+00:00,0.0
2024-01-19 14:00:00+00:00,0.0
2024-01-19 15:00:00+00:00,0.0
2024-01-19 16:00:00+00:00,0.0
2024-01-19 17:00:00+00:00,0.0
2024-01-19 18:00:00+00:00,0.0
2024-01-19 19:00:00+00:00,0.0
2024-01-19 20:00:00+00:00,0.0
2024-01-22 14:00:00+00:00,0.0
2024-01-22 15:00:00+00:00,0.0
2024-01-22 16:00:00+00:00,0.0
2024-01-22 17:00:00+00:00,0.0
2024-01-22 18:00:00+00:00,0.0
2024-01-22 19:00:00+00:00,0.0
2024-01-22 20:00:00+00:00,0.0
2024-01-23 14:00:00+00:00,0.0
2024-01-23 15:00:00+00:00,0.0
2024-01-23 16:00:00+00:00,0.0
2024-01-23 17:00:00+00:00,0.0
2024-01-23 18:00:00+00:00,0.0
2024-01-23 19:00:00+00:00,0.0
2024-01-23 20:00:00+00:00,0.0
2024-01-24 14:00:00+00:00,0.0
2024-01-24 15:00:00+00:00,0.0
2024-01-24 16:00:00+00:00,0.0
2024-01-24 17:00:00+00:00,0.0
2024-01-24 18:00:00+00:00,0.0
2024-01-24 19:00:00+00:00,0.0
2024-01-24 20:00:00+00:00,0.0
2024-01-25 14:00:00+00:00,0.0
2024-01-25 15:00:00+00:00,0.0
2024-01-25 16:00:00+00:00,0.0
2024-01-25 17:00:00+00:00,0.0
2024-01-25 18:00:00+00:00,0.0
2024-01-25 19:00:00+00:00,0.0
2024-01-25 20:00:00+00:00,0.0
2024-01-26 14:00:00+00:00,0.0
2024-01-26 15:00:00+00:00,0.0
2024-01-26 16:00:00+00:00,0.0
2024-01-26 17:00:00+00:00,0.0
2024-01-26 18:00:00+00:00,0.0
2024-01-26 19:00:00+00:00,0.0
2024-01-26 20:00:00+00:00,0.0
2024-01-29 14:00:00+00:00,0.0
2024-01-29 15:00:00+00:00,0.0
2024-01-29 16:00:00+00:00,0.0
2024-01-29 17:00:00+00:00,0.0
2024-01-29 18:00:00+00:00,0.0
2024-01-29 19:00:00+00:00,0.0
2024-01-29 20:00:00+00:00,0.0
2024-01-30 14:00:00+00:00,0.0
2024-01-30 15:00:00+00:00,0.0
2024-01-30 16:00:00+00:00,0.0
2024-01-30 17:00:00+00:00,0.0
2024-01-30 18:00:00+00:00,0.0
2024-01-30 19:00:00+00:00,0.0
2024-01-30 20:00:00+00:00,0.0
2024-01-31 14:00:00+00:00,0.0
2024-01-31 15:00:00+00:00,0.0
2024-01-31 16:00:00+00:00,0.0
2024-01-31 17:00:00+00:00,0.0
2024-01-31 18:00:00+00:00,0.0
2024-01-31 19:00:00+00:00,0.0
2024-01-31 20:00:00+00:00,0.0
2024-02-01 14:00:00+00:00,0.0
2024-02-01 15:00:00+00:00,0.0
2024-02-01 16:00:00+00:00,0.0
2024-02-01 17:00:00+00:00,0.0
2024-02-01 18:00:00+00:00,0.0
2024-02-01 19:00:00+00:00,0.0
2024-02-01 20:00:00+00:00,0.0
2024-02-02 14:00:00+00:00,0.0
2024-02-02 15:00:00+00:00,0.0
2024-02-02 16:00:00+00:00,0.0
2024-02-02 17:00:00+00:00,0.0
2024-02-02 18:00:00+00:00,0.0
2024-02-02 19:00:00+00:00,0.0
2024-02-02 20:00:00+00:00,0.0
2024-02-05 14:00:00+00:00,0.0
2024-02-05 15:00:00+00:00,0.0
2024-02-05 16:00:00+00:00,0.0
2024-02-05 17:00:00+00:00,0.0
2024-02-05 18:00:00+00:00,0.0
2024-02-05 19:00:00+00:00,0.0
2024-02-05 20:00:00+00:00,0.0
2024-02-06 14:00:00+00:00,0.0
2024-02-06 15:00:00+00:00,0.0
2024-02-06 16:00:00+00:00,0.0
2024-02-06 17:00:00+00:00,0.0
2024-02-06 18:00:00+00:00,0.0
2024-02-06 19:00:00+00:00,0.0
2024-02-06 20:00:00+00:00,0.0
2024-02-07 14:00:00+00:00,0.0
2024-02-07 15:00:00+00:00,0.0
2024-02-07 16:00:00+00:00,0.0
2024-02-07 17:00:00+00:00,0.0
2024-02-07 18:00:00+00:00,0.0
2024-02-07 19:00:00+00:00,0.0
2024-02-07 20:00:00+00:00,0.0
2024-02-08 14:00:00+00:00,0.0
2024-02-08 15:00:00+00:00,0.0
2024-02-08 16:00:00+00:00,0.0
2024-02-08 17:00:00+00:00,0.0
2024-02-08 18:00:00+00:00,0.0
2024-02-08 19:00:00+00:00,0.0
2024-02-08 20:00:00+00:00,0.0
2024-02-09 14:00:00+00:00,0.0
2024-02-09 15:00:00+00:00,0.0
2024-02-09 16:00:00+00:00,0.0
2024-02-09 17:00:00+00:00,0.0
2024-02-09 18:00:00+00:00,0.0
2024-02-09 19:00:00+00:00,0.0
2024-02-09 20:00:00+00:00,0.0
2024-02-12 14:00:00+00:00,0.0
2024-02-12 15:00:00+00:00,0.0
2024-02-12 16:00:00+00:00,0.0
2024-02-12 17:00:00+00:00,0.0
2024-02-12 18:00:00+00:00,0.0
2024-02-12 19:00:00+00:00,0.0
2024-02-12 20:00:00+00:00,0.0
2024-02-13 14:00:00+00:00,0.0
2024-02-13 15:00:00+00:00,0.0
2024-02-13 16:00:00+00:00,0.0
2024-02-13 17:00:00+00:00,0.0
2024-02-13 18:00:00+00:00,0.0
2024-02-13 19:00:00+00:00,0.0
2024-02-13 20:00:00+00:00,0.0
2024-02-14 14:00:00+00:00,0.0
2024-02-14 15:00:00+00:00,0.0
2024-02-14 16:00:00+00:00,0.0
2024-02-14 17:00:00+00:00,0.0
2024-02-14 18:00:00+00:00,0.0
2024-02-14 19:00:00+00:00,0.0
2024-02-14 20:00:00+00:00,0.0
2024-02-15 14:00:00+00:00,0.0
2024-02-15 15:00:00+00:00,0.0
2024-02-15 16:00:00+00:00,0.0
2024-02-15 17:00:00+00:00,0.0
2024-02-15 18:00:00+00:00,0.0
2024-02-15 19:00:00+00:00,0.0
2024-02-15 20:00:00+00:00,0.0
2024-02-16 14:00:00+00:00,0.0
2024-02-16 15:00:00+00:00,0.0
2024-02-16 16:00:00+00:00,0.0
2024-02-16 17:00:00+00:00,0.0
2024-02-16 18:00:00+00:00,0.0
2024-02-16 19:00:00+00:00,0.0
2024-02-16 20:00:00+00:00,0.0
2024-02-20 14:00:00+00:00,0.0
2024-02-20 15:00:00+00:00,0.0
2024-02-20 16:00:00+00:00,0.0
2024-02-20 17:00:00+00:00,0.0
2024-02-20 18:00:00+00:00,0.0
2024-02-20 19:00:00+00:00,0.0
2024-02-20 20:00:00+00:00,0.0
2024-02-21 14:00:00+00:00,0.0
2024-02-21 15:00:00+00:00,0.0
2024-02-21 16:00:00+00:00,0.0
2024-02-21 17:00:00+00:00,0.0
2024-02-21 18:00:00+00:00,0.0
2024-02-21 19:00:00+00:00,0.0
2024-02-21 20:00:00+00:00,0.0
2024-02-22 14:00:00+00:00,0.0
2024-02-22 15:00:00+00:00,0.0
2024-02-22 16:00:00+00:00,0.0
2024-02-22 17:00:00+00:00,0.0
2024-02-22 18:00:00+00:00,0.0
2024-02-22 19:00:00+00:00,0.0
2024-02-22 20:00:00+00:00,0.0
2024-02-23 14:00:00+00:00,0.0
2024-02-23 15:00:00+00:00,0.0
2024-02-23 16:00:00+00:00,0.0
2024-02-23 17:00:00+00:00,0.0
2024-02-23 18:00:00+00:00,0.0
2024-02-23 19:00:00+00:00,0.0
2024-02-23 20:00:00+00:00,0.0
2024-02-26 14:00:00+00:00,0.0
2024-02-26 15:00:00+00:00,0.0
2024-02-26 16:00:00+00:00,0.0
2024-02-26 17:00:00+00:00,0.0
2024-02-26 18:00:00+00:00,0.0
2024-02-26 19:00:00+00:00,0.0
2024-02-26 20:00:00+00:00,0.0
2024-02-27 14:00:00+00:00,0.0
2024-02-27 15:00:00+00:00,0.0
2024-02-27 16:00:00+00:00,0.0
2024-02-27 17:00:00+00:00,0.0
2024-02-27 18:00:00+00:00,0.0
2024-02-27 19:00:00+00:00,0.0
2024-02-27 20:00:00+00:00,0.0
2024-02-28 14:00:00+00:00,0.0
2024-02-28 15:00:00+00:00,0.0
2024-02-28 16:00:00+00:00,0.0
2024-02-28 17:00:00+00:00,0.0
2024-02-28 18:00:00+00:00,0.0
2024-02-28 19:00:00+00:00,0.0
2024-02-28 20:00:00+00:00,0.0
2024-02-29 14:00:00+00:00,0.0
2024-02-29 15:00:00+00:00,0.0
2024-02-29 16:00:00+00:00,0.0
2024-02-29 17:00:00+00:00,0.0
2024-02-29 18:00:00+00:00,0.0
2024-02-29 19:00:00+00:00,0.0
2024-02-29 20:00:00+00:00,0.0
2024-03-01 14:00:00+00:00,0.0
2024-03-01 15:00:00+00:00,0.0
2024-03-01 16:00:00+00:00,0.0
2024-03-01 17:00:00+00:00,0.0
2024-03-01 18:00:00+00:00,0.0
2024-03-01 19:00:00+00:00,0.0
2024-03-01 20:00:00+00:00,0.0
2024-03-04 14:00:00+00:00,0.0
2024-03-04 15:00:00+00:00,0.0
2024-03-04 16:00:00+00:00,0.0
2024-03-04 17:00:00+00:00,0.0
2024-03-04 18:00:00+00:00,0.0
2024-03-04 19:00:00+00:00,0.0
2024-03-04 20:00:00+00:00,0.0
2024-03-05 14:00:00+00:00,0.0
2024-03-05 15:00:00+00:00,0.0
2024-03-05 16:00:00+00:00,0.0
2024-03-05 17:00:00+00:00,0.0
2024-03-05 18:00:00+00:00,0.0
2024-03-05 19:00:00+00:00,0.0
2024-03-05 20:00:00+00:00,0.0
2024-03-06 14:00:00+00:00,0.0
2024-03-06 15:00:00+00:00,0.0
2024-03-06 16:00:00+00:00,0.0
2024-03-06 17:00:00+00:00,0.0
2024-03-06 18:00:00+00:00,0.0
2024-03-06 19:00:00+00:00,0.0
2024-03-06 20:00:00+00:00,0.0
2024-03-07 14:00:00+00:00,0.0
2024-03-07 15:00:00+00:00,0.0
2024-03-07 16:00:00+00:00,0.0
2024-03-07 17:00:00+00:00,0.0
2024-03-07 18:00:00+00:00,0.0
2024-03-07 19:00:00+00:00,0.0
2024-03-07 20:00:00+00:00,0.0
2024-03-08 14:00:00+00:00,0.0
2024-03-08 15:00:00+00:00,0.0
2024-03-08 16:00:00+00:00,0.0
2024-03-08 17:00:00+00:00,0.0
2024-03-08 18:00:00+00:00,0.0
2024-03-08 19:00:00+00:00,0.0
2024-03-08 20:00:00+00:00,0.0
2024-03-11 13:00:00+00:00,0.0
2024-03-11 14:00:00+00:00,0.0
2024-03-11 15:00:00+00:00,0.0
2024-03-11 16:00:00+00:00,0.0
2024-03-11 17:00:00+00:00,0.0
2024-03-11 18:00:00+00:00,0.0
2024-03-11 19:00:00+00:00,0.0
2024-03-12 13:00:00+00:00,0.0
2024-03-12 14:00:00+00:00,0.0
2024-03-12 15:00:00+00:00,0.0
2024-03-12 16:00:00+00:00,0.0
2024-03-12 17:00:00+00:00,0.0
2024-03-12 18:00:00+00:00,0.0
2024-03-12 19:00:00+00:00,0.0
2024-03-13 13:00:00+00:00,0.0
2024-03-13 14:00:00+00:00,0.0
2024-03-13 15:00:00+00:00,0.0
2024-03-13 16:00:00+00:00,0.0
2024-03-13 17:00:00+00:00,0.0
2024-03-13 18:00:00+00:00,0.0
2024-03-13 19:00:00+00:00,0.0
2024-03-14 13:00:00+00:00,0.0
2024-03-14 14:00:00+00:00,0.0
2024-03-14 15:00:00+00:00,0.0
2024-03-14 16:00:00+00:00,0.0
2024-03-14 17:00:00+00:00,0.0
2024-03-14 18:00:00+00:00,0.0
2024-03-14 19:00:00+00:00,0.0
2024-03-15 13:00:00+00:00,0.0
2024-03-15 14:00:00+00:00,0.0
2024-03-15 15:00:00+00:00,0.0
2024-03-15 16:00:00+00:00,0.0
2024-03-15 17:00:00+00:00,0.0
2024-03-15 18:00:00+00:00,0.0
2024-03-15 19:00:00+00:00,0.0
2024-03-18 13:00:00+00:00,0.0
2024-03-18 14:00:00+00:00,0.0
2024-03-18 15:00:00+00:00,0.0
2024-03-18 16:00:00+00:00,0.0
2024-03-18 17:00:00+00:00,0.0
2024-03-18 18:00:00+00:00,0.0
2024-03-18 19:00:00+00:00,0.0
2024-03-19 13:00:00+00:00,0.0
2024-03-19 14:00:00+00:00,0.0
2024-03-19 15:00:00+00:00,0.0
2024-03-19 16:00:00+00:00,0.0
2024-03-19 17:00:00+00:00,0.0
2024-03-19 18:00:00+00:00,0.0
2024-03-19 19:00:00+00:00,0.0
2024-03-20 13:00:00+00:00,0.0
2024-03-20 14:00:00+00:00,0.0
2024-03-20 15:00:00+00:00,0.0
2024-03-20 16:00:00+00:00,0.0
2024-03-20 17:00:00+00:00,0.0
2024-03-20 18:00:00+00:00,0.0
2024-03-20 19:00:00+00:00,0.0
2024-03-21 13:00:00+00:00,0.0
2024-03-21 14:00:00+00:00,0.0
2024-03-21 15:00:00+00:00,0.0
2024-03-21 16:00:00+00:00,0.0
2024-03-21 17:00:00+00:00,0.0
2024-03-21 18:00:00+00:00,0.0
2024-03-21 19:00:00+00:00,0.0
2024-03-22 13:00:00+00:00,0.0
2024-03-22 14:00:00+00:00,0.0
2024-03-22 15:00:00+00:00,0.0
2024-03-22 16:00:00+00:00,0.0
2024-03-22 17:00:00+00:00,0.0
2024-03-22 18:00:00+00:00,0.0
2024-03-22 19:00:00+00:00,0.0
2024-03-25 13:00:00+00:00,0.0
2024-03-25 14:00:00+00:00,0.0
2024-03-25 15:00:00+00:00,0.0
2024-03-25 16:00:00+00:00,0.0
2024-03-25 17:00:00+00:00,0.0
2024-03-25 18:00:00+00:00,0.0
2024-03-25 19:00:00+00:00,0.0
2024-03-26 13:00:00+00:00,0.0
2024-03-26 14:00:00+00:00,0.0
2024-03-26 15:00:00+00:00,0.0
2024-03-26 16:00:00+00:00,0.0
2024-03-26 17:00:00+00:00,0.0
2024-03-26 18:00:00+00:00,0.0
2024-03-26 19:00:00+00:00,0.0
2024-03-27 13:00:00+00:00,0.0
2024-03-27 14:00:00+00:00,0.0
2024-03-27 15:00:00+00:00,0.0
2024-03-27 16:00:00+00:00,0.0
2024-03-27 17:00:00+00:00,0.0
2024-03-27 18:00:00+00:00,0.0
2024-03-27 19:00:00+00:00,0.0
2024-03-28 13:00:00+00:00,0.0
2024-03-28 14:00:00+00:00,0.0
2024-03-28 15:00:00+00:00,0.0
2024-03-28 16:00:00+00:00,0.0
2024-03-28 17:00:00+00:00,0.0
2024-03-28 18:00:00+00:00,0.0
2024-03-28 19:00:00+00:00,0.0
2024-04-01 13:00:00+00:00,0.0
2024-04-01 14:00:00+00:00,0.0
2024-04-01 15:00:00+00:00,0.0
2024-04-01 16:00:00+00:00,0.0
2024-04-01 17:00:00+00:00,0.0
2024-04-01 18:00:00+00:00,0.0
2024-04-01 19:00:00+00:00,0.0
2024-04-02 13:00:00+00:00,0.0
2024-04-02 14:00:00+00:00,0.0
2024-04-02 15:00:00+00:00,0.0
2024-04-02 16:00:00+00:00,0.0
2024-04-02 17:00:00+00:00,0.0
2024-04-02 18:00:00+00:00,0.0
2024-04-02 19:00:00+00:00,0.0
2024-04-03 13:00:00+00:00,0.0
2024-04-03 14:00:00+00:00,0.0
2024-04-03 15:00:00+00:00,0.0
2024-04-03 16:00:00+00:00,0.0
2024-04-03 17:00:00+00:00,0.0
2024-04-03 18:00:00+00:00,0.0
2024-04-03 19:00:00+00:00,0.0
2024-04-04 13:00:00+00:00,0.0
2024-04-04 14:00:00+00:00,0.0
2024-04-04 15:00:00+00:00,0.0
2024-04-04 16:00:00+00:00,0.0
2024-04-04 17:00:00+00:00,0.0
2024-04-04 18:00:00+00:00,0.0
2024-04-04 19:00:00+00:00,0.0
2024-04-05 13:00:00+00:00,0.0
2024-04-05 14:00:00+00:00,0.0
2024-04-05 15:00:00+00:00,0.0
2024-04-05 16:00:00+00:00,0.0
2024-04-05 17:00:00+00:00,0.0
2024-04-05 18:00:00+00:00,0.0
2024-04-05 19:00:00+00:00,0.0
2024-04-08 13:00:00+00:00,0.0
2024-04-08 14:00:00+00:00,0.0
2024-04-08 15:00:00+00:00,0.0
2024-04-08 16:00:00+00:00,0.0
2024-04-08 17:00:00+00:00,0.0
2024-04-08 18:00:00+00:00,0.0
2024-04-08 19:00:00+00:00,0.0
2024-04-09 13:00:00+00:00,0.0
2024-04-09 14:00:00+00:00,0.0
2024-04-09 15:00:00+00:00,0.0
2024-04-09 16:00:00+00:00,0.0
2024-04-09 17:00:00+00:00,0.0
2024-04-09 18:00:00+00:00,0.0
2024-04-09 19:00:00+00:00,0.0
2024-04-10 13:00:00+00:00,0.0
2024-04-10 14:00:00+00:00,0.0
2024-04-10 15:00:00+00:00,0.0
2024-04-10 16:00:00+00:00,0.0
2024-04-10 17:00:00+00:00,0.0
2024-04-10 18:00:00+00:00,0.0
2024-04-10 19:00:00+00:00,0.0
2024-04-11 13:00:00+00:00,0.0
2024-04-11 14:00:00+00:00,0.0
2024-04-11 15:00:00+00:00,0.0
2024-04-11 16:00:00+00:00,0.0
2024-04-11 17:00:00+00:00,0.0
2024-04-11 18:00:00+00:00,0.0
2024-04-11 19:00:00+00:00,0.0
2024-04-12 13:00:00+00:00,0.0
2024-04-12 14:00:00+00:00,0.0
2024-04-12 15:00:00+00:00,0.0
2024-04-12 16:00:00+00:00,0.0
2024-04-12 17:00:00+00:00,0.0
2024-04-12 18:00:00+00:00,0.0
2024-04-12 19:00:00+00:00,0.0
2024-04-15 13:00:00+00:00,0.0
2024-04-15 14:00:00+00:00,0.0
2024-04-15 15:00:00+00:00,0.0
2024-04-15 16:00:00+00:00,0.0
2024-04-15 17:00:00+00:00,0.0
2024-04-15 18:00:00+00:00,0.0
2024-04-15 19:00:00+00:00,0.0
2024-04-16 13:00:00+00:00,0.0
2024-04-16 14:00:00+00:00,0.0
2024-04-16 15:00:00+00:00,0.0
2024-04-16 16:00:00+00:00,0.0
2024-04-16 17:00:00+00:00,0.0
2024-04-16 18:00:00+00:00,0.0
2024-04-16 19:00:00+00:00,0.0
2024-04-17 13:00:00+00:00,0.0
2024-04-17 14:00:00+00:00,0.0
2024-04-17 15:00:00+00:00,0.0
2024-04-17 16:00:00+00:00,0.0
2024-04-17 17:00:00+00:00,0.0
2024-04-17 18:00:00+00:00,0.0
2024-04-17 19:00:00+00:00,0.0
2024-04-18 13:00:00+00:00,0.0
2024-04-18 14:00:00+00:00,0.0
2024-04-18 15:00:00+00:00,0.0
2024-04-18 16:00:00+00:00,0.0
2024-04-18 17:00:00+00:00,0.0
2024-04-18 18:00:00+00:00,0.0
2024-04-18 19:00:00+00:00,0.0
2024-04-19 13:00:00+00:00,0.0
2024-04-19 14:00:00+00:00,0.0
2024-04-19 15:00:00+00:00,0.0
2024-04-19 16:00:00+00:00,0.0
2024-04-19 17:00:00+00:00,0.0
2024-04-19 18:00:00+00:00,0.0
2024-04-19 19:00:00+00:00,0.0
2024-04-22 13:00:00+00:00,0.0
2024-04-22 14:00:00+00:00,0.0
2024-04-22 15:00:00+00:00,0.0
2024-04-22 16:00:00+00:00,0.0
2024-04-22 17:00:00+00:00,0.0
2024-04-22 18:00:00+00:00,0.0
2024-04-22 19:00:00+00:00,0.0
2024-04-23 13:00:00+00:00,0.0
2024-04-23 14:00:00+00:00,0.0
2024-04-23 15:00:00+00:00,0.0
2024-04-23 16:00:00+00:00,0.0
2024-04-23 17:00:00+00:00,0.0
2024-04-23 18:00:00+00:00,0.0
2024-04-23 19:00:00+00:00,0.0
2024-04-24 13:00:00+00:00,0.0
2024-04-24 14:00:00+00:00,0.0
2024-04-24 15:00:00+00:00,0.0
2024-04-24 16:00:00+00:00,0.0
2024-04-24 17:00:00+00:00,0.0
2024-04-24 18:00:00+00:00,0.0
2024-04-24 19:00:00+00:00,0.0
2024-04-25 13:00:00+00:00,0.0
2024-04-25 14:00:00+00:00,0.0
2024-04-25 15:00:00+00:00,0.0
2024-04-25 16:00:00+00:00,0.0
2024-04-25 17:00:00+00:00,0.0
2024-04-25 18:00:00+00:00,0.0
2024-04-25 19:00:00+00:00,0.0
2024-04-26 13:00:00+00:00,0.0
2024-04-26 14:00:00+00:00,0.0
2024-04-26 15:00:00+00:00,0.0
2024-04-26 16:00:00+00:00,0.0
2024-04-26 17:00:00+00:00,0.0
2024-04-26 18:00:00+00:00,0.0
2024-04-26 19:00:00+00:00,0.0
2024-04-29 13:00:00+00:00,0.0
2024-04-29 14:00:00+00:00,0.0
2024-04-29 15:00:00+00:00,0.0
2024-04-29 16:00:00+00:00,0.0
2024-04-29 17:00:00+00:00,0.0
2024-04-29 18:00:00+00:00,0.0
2024-04-29 19:00:00+00:00,0.0
2024-04-30 13:00:00+00:00,0.0
2024-04-30 14:00:00+00:00,0.0
2024-04-30 15:00:00+00:00,0.0
2024-04-30 16:00:00+00:00,0.0
2024-04-30 17:00:00+00:00,0.0
2024-04-30 18:00:00+00:00,0.0
2024-04-30 19:00:00+00:00,0.0
2024-05-01 13:00:00+00:00,0.0
2024-05-01 14:00:00+00:00,0.0
2024-05-01 15:00:00+00:00,0.0
2024-05-01 16:00:00+00:00,0.0
2024-05-01 17:00:00+00:00,0.0
2024-05-01 18:00:00+00:00,0.0
2024-05-01 19:00:00+00:00,0.0
2024-05-02 13:00:00+00:00,0.0
2024-05-02 14:00:00+00:00,0.0
2024-05-02 15:00:00+00:00,0.0
2024-05-02 16:00:00+00:00,0.0
2024-05-02 17:00:00+00:00,0.0
2024-05-02 18:00:00+00:00,0.0
2024-05-02 19:00:00+00:00,0.0
2024-05-03 13:00:00+00:00,0.0
2024-05-03 14:00:00+00:00,0.0
2024-05-03 15:00:00+00:00,0.0
2024-05-03 16:00:00+00:00,0.0
2024-05-03 17:00:00+00:00,0.0
2024-05-03 18:00:00+00:00,0.0
2024-05-03 19:00:00+00:00,0.0
2024-05-06 13:00:00+00:00,0.0
2024-05-06 14:00:00+00:00,0.0
2024-05-06 15:00:00+00:00,0.0
2024-05-06 16:00:00+00:00,0.0
2024-05-06 17:00:00+00:00,0.0
2024-05-06 18:00:00+00:00,0.0
2024-05-06 19:00:00+00:00,0.0
2024-05-07 13:00:00+00:00,0.0
2024-05-07 14:00:00+00:00,0.0
2024-05-07 15:00:00+00:00,0.0
2024-05-07 16:00:00+00:00,0.0
2024-05-07 17:00:00+00:00,0.0
2024-05-07 18:00:00+00:00,0.0
2024-05-07 19:00:00+00:00,0.0
2024-05-08 13:00:00+00:00,0.0
2024-05-08 14:00:00+00:00,0.0
2024-05-08 15:00:00+00:00,0.0
2024-05-08 16:00:00+00:00,0.0
2024-05-08 17:00:00+00:00,0.0
2024-05-08 18:00:00+00:00,0.0
2024-05-08 19:00:00+00:00,0.0
2024-05-09 13:00:00+00:00,0.0
2024-05-09 14:00:00+00:00,0.0
2024-05-09 15:00:00+00:00,0.0
2024-05-09 16:00:00+00:00,0.0
2024-05-09 17:00:00+00:00,0.0
2024-05-09 18:00:00+00:00,0.0
2024-05-09 19:00:00+00:00,0.0
2024-05-10 13:00:00+00:00,0.0
2024-05-10 14:00:00+00:00,0.0
2024-05-10 15:00:00+00:00,0.0
2024-05-10 16:00:00+00:00,0.0
2024-05-10 17:00:00+00:00,0.0
2024-05-10 18:00:00+00:00,0.0
2024-05-10 19:00:00+00:00,0.0
2024-05-13 13:00:00+00:00,0.0
2024-05-13 14:00:00+00:00,0.0
2024-05-13 15:00:00+00:00,0.0
2024-05-13 16:00:00+00:00,0.0
2024-05-13 17:00:00+00:00,0.0
2024-05-13 18:00:00+00:00,0.0
2024-05-13 19:00:00+00:00,0.0
2024-05-14 13:00:00+00:00,0.0
2024-05-14 14:00:00+00:00,0.0
2024-05-14 15:00:00+00:00,0.0
2024-05-14 16:00:00+00:00,0.0
2024-05-14 17:00:00+00:00,0.0
2024-05-14 18:00:00+00:00,0.0
2024-05-14 19:00:00+00:00,0.0
2024-05-15 13:00:00+00:00,0.0
2024-05-15 14:00:00+00:00,0.0
2024-05-15 15:00:00+00:00,0.0
2024-05-15 16:00:00+00:00,0.0
2024-05-15 17:00:00+00:00,0.0
2024-05-15 18:00:00+00:00,0.0
2024-05-15 19:00:00+00:00,0.0
2024-05-16 13:00:00+00:00,0.0
2024-05-16 14:00:00+00:00,0.0
2024-05-16 15:00:00+00:00,0.0
2024-05-16 16:00:00+00:00,0.0
2024-05-16 17:00:00+00:00,0.0
2024-05-16 18:00:00+00:00,0.0
2024-05-16 19:00:00+00:00,0.0
2024-05-17 13:00:00+00:00,0.0
2024-05-17 14:00:00+00:00,0.0
2024-05-17 15:00:00+00:00,0.0
2024-05-17 16:00:00+00:00,0.0
2024-05-17 17:00:00+00:00,0.0
2024-05-17 18:00:00+00:00,0.0
2024-05-17 19:00:00+00:00,0.0
2024-05-20 13:00:00+00:00,0.0
2024-05-20 14:00:00+00:00,0.0
2024-05-20 15:00:00+00:00,0.0
2024-05-20 16:00:00+00:00,0.0
2024-05-20 17:00:00+00:00,0.0
2024-05-20 18:00:00+00:00,0.0
2024-05-20 19:00:00+00:00,0.0
2024-05-21 13:00:00+00:00,0.0
2024-05-21 14:00:00+00:00,0.0
2024-05-21 15:00:00+00:00,0.0
2024-05-21 16:00:00+00:00,0.0
2024-05-21 17:00:00+00:00,0.0
2024-05-21 18:00:00+00:00,0.0
2024-05-21 19:00:00+00:00,0.0
2024-05-22 13:00:00+00:00,0.0
2024-05-22 14:00:00+00:00,0.0
2024-05-22 15:00:00+00:00,0.0
2024-05-22 16:00:00+00:00,0.0
2024-05-22 17:00:00+00:00,0.0
2024-05-22 18:00:00+00:00,0.0
2024-05-22 19:00:00+00:00,0.0
2024-05-23 13:00:00+00:00,0.0
2024-05-23 14:00:00+00:00,0.0
2024-05-23 15:00:00+00:00,0.0
2024-05-23 16:00:00+00:00,0.0
2024-05-23 17:00:00+00:00,0.0
2024-05-23 18:00:00+00:00,0.0
2024-05-23 19:00:00+00:00,0.0
2024-05-24 13:00:00+00:00,0.0
2024-05-24 14:00:00+00:00,0.0
2024-05-24 15:00:00+00:00,0.0
2024-05-24 16:00:00+00:00,0.0
2024-05-24 17:00:00+00:00,0.0
2024-05-24 18:00:00+00:00,0.0
2024-05-24 19:00:00+00:00,0.0
2024-05-28 13:00:00+00:00,0.0
2024-05-28 14:00:00+00:00,0.0
2024-05-28 15:00:00+00:00,0.0
2024-05-28 16:00:00+00:00,0.0
2024-05-28 17:00:00+00:00,0.0
2024-05-28 18:00:00+00:00,0.0
2024-05-28 19:00:00+00:00,0.0
2024-05-29 13:00:00+00:00,0.0
2024-05-29 14:00:00+00:00,0.0
2024-05-29 15:00:00+00:00,0.0
2024-05-29 16:00:00+00:00,0.0
2024-05-29 17:00:00+00:00,0.0
2024-05-29 18:00:00+00:00,0.0
2024-05-29 19:00:00+00:00,0.0
2024-05-30 13:00:00+00:00,0.0
2024-05-30 14:00:00+00:00,0.0
2024-05-30 15:00:00+00:00,0.0
2024-05-30 16:00:00+00:00,0.0
2024-05-30 17:00:00+00:00,0.0
2024-05-30 18:00:00+00:00,0.0
2024-05-30 19:00:00+00:00,0.0
2024-05-31 13:00:00+00:00,0.0
2024-05-31 14:00:00+00:00,0.0
2024-05-31 15:00:00+00:00,0.0
2024-05-31 16:00:00+00:00,0.0
2024-05-31 17:00:00+00:00,0.0
2024-05-31 18:00:00+00:00,0.0
2024-05-31 19:00:00+00:00,0.0
2024-06-03 13:00:00+00:00,0.0
2024-06-03 14:00:00+00:00,0.0
2024-06-03 15:00:00+00:00,0.0
2024-06-03 16:00:00+00:00,0.0
2024-06-03 17:00:00+00:00,0.0
2024-06-03 18:00:00+00:00,0.0
2024-06-03 19:00:00+00:00,0.0
2024-06-04 13:00:00+00:00,0.0
2024-06-04 14:00:00+00:00,0.0
2024-06-04 15:00:00+00:00,0.0
2024-06-04 16:00:00+00:00,0.0
2024-06-04 17:00:00+00:00,0.0
2024-06-04 18:00:00+00:00,0.0
2024-06-04 19:00:00+00:00,0.0
2024-06-05 13:00:00+00:00,0.0
2024-06-05 14:00:00+00:00,0.0
2024-06-05 15:00:00+00:00,0.0
2024-06-05 16:00:00+00:00,0.0
2024-06-05 17:00:00+00:00,0.0
2024-06-05 18:00:00+00:00,0.0
2024-06-05 19:00:00+00:00,0.0
2024-06-06 13:00:00+00:00,0.0
2024-06-06 14:00:00+00:00,0.0
2024-06-06 15:00:00+00:00,0.0
2024-06-06 16:00:00+00:00,0.0
2024-06-06 17:00:00+00:00,0.0
2024-06-06 18:00:00+00:00,0.0
2024-06-06 19:00:00+00:00,0.0
2024-06-07 13:00:00+00:00,0.0
2024-06-07 14:00:00+00:00,0.0
2024-06-07 15:00:00+00:00,0.0
2024-06-07 16:00:00+00:00,0.0
2024-06-07 17:00:00+00:00,0.0
2024-06-07 18:00:00+00:00,0.0
2024-06-07 19:00:00+00:00,0.0
2024-06-10 13:00:00+00:00,0.0
2024-06-10 14:00:00+00:00,0.0
2024-06-10 15:00:00+00:00,0.0
2024-06-10 16:00:00+00:00,0.0
2024-06-10 17:00:00+00:00,0.0
2024-06-10 18:00:00+00:00,0.0
2024-06-10 19:00:00+00:00,0.0
2024-06-11 13:00:00+00:00,0.0
2024-06-11 14:00:00+00:00,0.0
2024-06-11 15:00:00+00:00,0.0
2024-06-11 16:00:00+00:00,0.0
2024-06-11 17:00:00+00:00,0.0
2024-06-11 18:00:00+00:00,0.0
2024-06-11 19:00:00+00:00,0.0
2024-06-12 13:00:00+00:00,0.0
2024-06-12 14:00:00+00:00,0.0
2024-06-12 15:00:00+00:00,0.0
2024-06-12 16:00:00+00:00,0.0
2024-06-12 17:00:00+00:00,0.0
2024-06-12 18:00:00+00:00,0.0
2024-06-12 19:00:00+00:00,0.0
2024-06-13 13:00:00+00:00,0.0
2024-06-13 14:00:00+00:00,0.0
2024-06-13 15:00:00+00:00,0.0
2024-06-13 16:00:00+00:00,0.0
2024-06-13 17:00:00+00:00,0.0
2024-06-13 18:00:00+00:00,0.0
2024-06-13 19:00:00+00:00,0.0
2024-06-14 13:00:00+00:00,0.0
2024-06-14 14:00:00+00:00,0.0
2024-06-14 15:00:00+00:00,0.0
2024-06-14 16:00:00+00:00,0.0
2024-06-14 17:00:00+00:00,0.0
2024-06-14 18:00:00+00:00,0.0
2024-06-14 19:00:00+00:00,0.0
2024-06-17 13:00:00+00:00,0.0
2024-06-17 14:00:00+00:00,0.0
2024-06-17 15:00:00+00:00,0.0
2024-06-17 16:00:00+00:00,0.0
2024-06-17 17:00:00+00:00,0.0
2024-06-17 18:00:00+00:00,0.0
2024-06-17 19:00:00+00:00,0.0
2024-06-18 13:00:00+00:00,0.0
2024-06-18 14:00:00+00:00,0.0
2024-06-18 15:00:00+00:00,0.0
2024-06-18 16:00:00+00:00,0.0
2024-06-18 17:00:00+00:00,0.0
2024-06-18 18:00:00+00:00,0.0
2024-06-18 19:00:00+00:00,0.0
2024-06-20 13:00:00+00:00,0.0
2024-06-20 14:00:00+00:00,0.0
2024-06-20 15:00:00+00:00,0.0
2024-06-20 16:00:00+00:00,0.0
2024-06-20 17:00:00+00:00,0.0
2024-06-20 18:00:00+00:00,0.0
2024-06-20 19:00:00+00:00,0.0
2024-06-21 13:00:00+00:00,0.0
2024-06-21 14:00:00+00:00,0.0
2024-06-21 15:00:00+00:00,0.0
2024-06-21 16:00:00+00:00,0.0
2024-06-21 17:00:00+00:00,0.0
2024-06-21 18:00:00+00:00,0.0
2024-06-21 19:00:00+00:00,0.0
2024-06-24 13:00:00+00:00,0.0
2024-06-24 14:00:00+00:00,0.0
2024-06-24 15:00:00+00:00,0.0
2024-06-24 16:00:00+00:00,0.0
2024-06-24 17:00:00+00:00,0.0
2024-06-24 18:00:00+00:00,0.0
2024-06-24 19:00:00+00:00,0.0
2024-06-25 13:00:00+00:00,0.0
2024-06-25 14:00:00+00:00,0.0
2024-06-25 15:00:00+00:00,0.0
2024-06-25 16:00:00+00:00,0.0
2024-06-25 17:00:00+00:00,0.0
2024-06-25 18:00:00+00:00,0.0
2024-06-25 19:00:00+00:00,0.0
2024-06-26 13:00:00+00:00,0.0
2024-06-26 14:00:00+00:00,0.0
2024-06-26 15:00:00+00:00,0.0
2024-06-26 16:00:00+00:00,0.0
2024-06-26 17:00:00+00:00,0.0
2024-06-26 18:00:00+00:00,0.0
2024-06-26 19:00:00+00:00,0.0
2024-06-27 13:00:00+00:00,0.0
2024-06-27 14:00:00+00:00,0.0
2024-06-27 15:00:00+00:00,0.0
2024-06-27 16:00:00+00:00,0.0
2024-06-27 17:00:00+00:00,0.0
2024-06-27 18:00:00+00:00,0.0
2024-06-27 19:00:00+00:00,0.0
2024-06-28 13:00:00+00:00,0.0
2024-06-28 14:00:00+00:00,0.0
2024-06-28 15:00:00+00:00,0.0
2024-06-28 16:00:00+00:00,0.0
2024-06-28 17:00:00+00:00,0.0
2024-06-28 18:00:00+00:00,0.0
2024-06-28 19:00:00+00:00,0.0
2024-07-01 13:00:00+00:00,0.0
2024-07-01 14:00:00+00:00,0.0
2024-07-01 15:00:00+00:00,0.0
2024-07-01 16:00:00+00:00,0.0
2024-07-01 17:00:00+00:00,0.0
2024-07-01 18:00:00+00:00,0.0
2024-07-01 19:00:00+00:00,0.0
2024-07-02 13:00:00+00:00,0.0
2024-07-02 14:00:00+00:00,0.0
2024-07-02 15:00:00+00:00,0.0
2024-07-02 16:00:00+00:00,0.0
2024-07-02 17:00:00+00:00,0.0
2024-07-02 18:00:00+00:00,0.0
2024-07-02 19:00:00+00:00,0.0
2024-07-03 13:00:00+00:00,0.0
2024-07-03 14:00:00+00:00,0.0
2024-07-03 15:00:00+00:00,0.0
2024-07-05 13:00:00+00:00,0.0
2024-07-05 14:00:00+00:00,0.0
2024-07-05 15:00:00+00:00,0.0
2024-07-05 16:00:00+00:00,0.0
2024-07-05 17:00:00+00:00,0.0
2024-07-05 18:00:00+00:00,0.0
2024-07-05 19:00:00+00:00,0.0
2024-07-08 13:00:00+00:00,0.0
2024-07-08 14:00:00+00:00,0.0
2024-07-08 15:00:00+00:00,0.0
2024-07-08 16:00:00+00:00,0.0
2024-07-08 17:00:00+00:00,0.0
2024-07-08 18:00:00+00:00,0.0
2024-07-08 19:00:00+00:00,0.0
2024-07-09 13:00:00+00:00,0.0
2024-07-09 14:00:00+00:00,0.0
2024-07-09 15:00:00+00:00,0.0
2024-07-09 16:00:00+00:00,0.0
2024-07-09 17:00:00+00:00,0.0
2024-07-09 18:00:00+00:00,0.0
2024-07-09 19:00:00+00:00,0.0
2024-07-10 13:00:00+00:00,0.0
2024-07-10 14:00:00+00:00,0.0
2024-07-10 15:00:00+00:00,0.0
2024-07-10 16:00:00+00:00,0.0
2024-07-10 17:00:00+00:00,0.0
2024-07-10 18:00:00+00:00,0.0
2024-07-10 19:00:00+00:00,0.0
2024-07-11 13:00:00+00:00,0.0
2024-07-11 14:00:00+00:00,0.0
2024-07-11 15:00:00+00:00,0.0
2024-07-11 16:00:00+00:00,0.0
2024-07-11 17:00:00+00:00,0.0
2024-07-11 18:00:00+00:00,0.0
2024-07-11 19:00:00+00:00,0.0
2024-07-12 13:00:00+00:00,0.0
2024-07-12 14:00:00+00:00,0.0
2024-07-12 15:00:00+00:00,0.0
2024-07-12 16:00:00+00:00,0.0
2024-07-12 17:00:00+00:00,0.0
2024-07-12 18:00:00+00:00,0.0
2024-07-12 19:00:00+00:00,0.0
2024-07-15 13:00:00+00:00,0.0
2024-07-15 14:00:00+00:00,0.0
2024-07-15 15:00:00+00:00,0.0
2024-07-15 16:00:00+00:00,0.0
2024-07-15 17:00:00+00:00,0.0
2024-07-15 18:00:00+00:00,0.0
2024-07-15 19:00:00+00:00,0.0
2024-07-16 13:00:00+00:00,0.0
2024-07-16 14:00:00+00:00,0.0
2024-07-16 15:00:00+00:00,0.0
2024-07-16 16:00:00+00:00,0.0
2024-07-16 17:00:00+00:00,0.0
2024-07-16 18:00:00+00:00,0.0
2024-07-16 19:00:00+00:00,0.0
2024-07-17 13:00:00+00:00,0.0
2024-07-17 14:00:00+00:00,0.0
2024-07-17 15:00:00+00:00,0.0
2024-07-17 16:00:00+00:00,0.0
2024-07-17 17:00:00+00:00,0.0
2024-07-17 18:00:00+00:00,0.0
2024-07-17 19:00:00+00:00,0.0
2024-07-18 13:00:00+00:00,0.0
2024-07-18 14:00:00+00:00,0.0
2024-07-18 15:00:00+00:00,0.0
2024-07-18 16:00:00+00:00,0.0
2024-07-18 17:00:00+00:00,0.0
2024-07-18 18:00:00+00:00,0.0
2024-07-18 19:00:00+00:00,0.0
2024-07-19 13:00:00+00:00,0.0
2024-07-19 14:00:00+00:00,0.0
2024-07-19 15:00:00+00:00,0.0
2024-07-19 16:00:00+00:00,0.0
2024-07-19 17:00:00+00:00,0.0
2024-07-19 18:00:00+00:00,0.0
2024-07-19 19:00:00+00:00,0.0
2024-07-22 13:00:00+00:00,0.0
2024-07-22 14:00:00+00:00,0.0
2024-07-22 15:00:00+00:00,0.0
2024-07-22 16:00:00+00:00,0.0
2024-07-22 17:00:00+00:00,0.0
2024-07-22 18:00:00+00:00,0.0
2024-07-22 19:00:00+00:00,0.0
2024-07-23 13:00:00+00:00,0.0
2024-07-23 14:00:00+00:00,0.0
2024-07-23 15:00:00+00:00,0.0
2024-07-23 16:00:00+00:00,0.0
2024-07-23 17:00:00+00:00,0.0
2024-07-23 18:00:00+00:00,0.0
2024-07-23 19:00:00+00:00,0.0
2024-07-24 13:00:00+00:00,0.0
2024-07-24 14:00:00+00:00,0.0
2024-07-24 15:00:00+00:00,0.0
2024-07-24 16:00:00+00:00,0.0
2024-07-24 17:00:00+00:00,0.0
2024-07-24 18:00:00+00:00,0.0
2024-07-24 19:00:00+00:00,0.0
2024-07-25 13:00:00+00:00,0.0
2024-07-25 14:00:00+00:00,0.0
2024-07-25 15:00:00+00:00,0.0
2024-07-25 16:00:00+00:00,0.0
2024-07-25 17:00:00+00:00,0.0
2024-07-25 18:00:00+00:00,0.0
2024-07-25 19:00:00+00:00,0.0
2024-07-26 13:00:00+00:00,0.0
2024-07-26 14:00:00+00:00,0.0
2024-07-26 15:00:00+00:00,0.0
2024-07-26 16:00:00+00:00,0.0
2024-07-26 17:00:00+00:00,0.0
2024-07-26 18:00:00+00:00,0.0
2024-07-26 19:00:00+00:00,0.0
2024-07-29 13:00:00+00:00,0.0
2024-07-29 14:00:00+00:00,0.0
2024-07-29 15:00:00+00:00,0.0
2024-07-29 16:00:00+00:00,0.0
2024-07-29 17:00:00+00:00,0.0
2024-07-29 18:00:00+00:00,0.0
2024-07-29 19:00:00+00:00,0.0
2024-07-30 13:00:00+00:00,0.0
2024-07-30 14:00:00+00:00,0.0
2024-07-30 15:00:00+00:00,0.0
2024-07-30 16:00:00+00:00,0.0
2024-07-30 17:00:00+00:00,0.0
2024-07-30 18:00:00+00:00,0.0
2024-07-30 19:00:00+00:00,0.0
2024-07-31 13:00:00+00:00,0.0
2024-07-31 14:00:00+00:00,0.0
2024-07-31 15:00:00+00:00,0.0
2024-07-31 16:00:00+00:00,0.0
2024-07-31 17:00:00+00:00,0.0
2024-07-31 18:00:00+00:00,0.0
2024-07-31 19:00:00+00:00,0.0
2024-08-01 13:00:00+00:00,0.0
2024-08-01 14:00:00+00:00,0.0
2024-08-01 15:00:00+00:00,0.0
2024-08-01 16:00:00+00:00,0.0
2024-08-01 17:00:00+00:00,0.0
2024-08-01 18:00:00+00:00,0.0
2024-08-01 19:00:00+00:00,0.0
2024-08-02 13:00:00+00:00,0.0
2024-08-02 14:00:00+00:00,0.0
2024-08-02 15:00:00+00:00,0.0
2024-08-02 16:00:00+00:00,0.0
2024-08-02 17:00:00+00:00,0.0
2024-08-02 18:00:00+00:00,0.0
2024-08-02 19:00:00+00:00,0.0
2024-08-05 13:00:00+00:00,0.0
2024-08-05 14:00:00+00:00,0.0
2024-08-05 15:00:00+00:00,0.0
2024-08-05 16:00:00+00:00,0.0
2024-08-05 17:00:00+00:00,0.0
2024-08-05 18:00:00+00:00,0.0
2024-08-05 19:00:00+00:00,0.0
2024-08-06 13:00:00+00:00,0.0
2024-08-06 14:00:00+00:00,0.0
2024-08-06 15:00:00+00:00,0.0
2024-08-06 16:00:00+00:00,0.0
2024-08-06 17:00:00+00:00,0.0
2024-08-06 18:00:00+00:00,0.0
2024-08-06 19:00:00+00:00,0.0
2024-08-07 13:00:00+00:00,0.0
2024-08-07 14:00:00+00:00,0.0
2024-08-07 15:00:00+00:00,0.0
2024-08-07 16:00:00+00:00,0.0
2024-08-07 17:00:00+00:00,0.0
2024-08-07 18:00:00+00:00,0.0
2024-08-07 19:00:00+00:00,0.0
2024-08-08 13:00:00+00:00,0.0
2024-08-08 14:00:00+00:00,0.0
2024-08-08 15:00:00+00:00,0.0
2024-08-08 16:00:00+00:00,0.0
2024-08-08 17:00:00+00:00,0.0
2024-08-08 18:00:00+00:00,0.0
2024-08-08 19:00:00+00:00,0.0
2024-08-09 13:00:00+00:00,0.0
2024-08-09 14:00:00+00:00,0.0
2024-08-09 15:00:00+00:00,0.0
2024-08-09 16:00:00+00:00,0.0
2024-08-09 17:00:00+00:00,0.0
2024-08-09 18:00:00+00:00,0.0
2024-08-09 19:00:00+00:00,0.0
2024-08-12 13:00:00+00:00,0.0
2024-08-12 14:00:00+00:00,0.0
2024-08-12 15:00:00+00:00,0.0
2024-08-12 16:00:00+00:00,0.0
2024-08-12 17:00:00+00:00,0.0
2024-08-12 18:00:00+00:00,0.0
2024-08-12 19:00:00+00:00,0.0
2024-08-13 13:00:00+00:00,0.0
2024-08-13 14:00:00+00:00,0.0
2024-08-13 15:00:00+00:00,0.0
2024-08-13 16:00:00+00:00,0.0
2024-08-13 17:00:00+00:00,0.0
2024-08-13 18:00:00+00:00,0.0
2024-08-13 19:00:00+00:00,0.0
2024-08-14 13:00:00+00:00,0.0
2024-08-14 14:00:00+00:00,0.0
2024-08-14 15:00:00+00:00,0.0
2024-08-14 16:00:00+00:00,0.0
2024-08-14 17:00:00+00:00,0.0
2024-08-14 18:00:00+00:00,0.0
2024-08-14 19:00:00+00:00,0.0
2024-08-15 13:00:00+00:00,0.0
2024-08-15 14:00:00+00:00,0.0
2024-08-15 15:00:00+00:00,0.0
2024-08-15 16:00:00+00:00,0.0
2024-08-15 17:00:00+00:00,0.0
2024-08-15 18:00:00+00:00,0.0
2024-08-15 19:00:00+00:00,0.0
2024-08-16 13:00:00+00:00,0.0
2024-08-16 14:00:00+00:00,0.0
2024-08-16 15:00:00+00:00,0.0
2024-08-16 16:00:00+00:00,0.0
2024-08-16 17:00:00+00:00,0.0
2024-08-16 18:00:00+00:00,0.0
2024-08-16 19:00:00+00:00,0.0
2024-08-19 13:00:00+00:00,0.0
2024-08-19 14:00:00+00:00,0.0
2024-08-19 15:00:00+00:00,0.0
2024-08-19 16:00:00+00:00,0.0
2024-08-19 17:00:00+00:00,0.0
2024-08-19 18:00:00+00:00,0.0
2024-08-19 19:00:00+00:00,0.0
2024-08-20 13:00:00+00:00,0.0
2024-08-20 14:00:00+00:00,0.0
2024-08-20 15:00:00+00:00,0.0
2024-08-20 16:00:00+00:00,0.0
2024-08-20 17:00:00+00:00,0.0
2024-08-20 18:00:00+00:00,0.0
2024-08-20 19:00:00+00:00,0.0
2024-08-21 13:00:00+00:00,0.0
2024-08-21 14:00:00+00:00,0.0
2024-08-21 15:00:00+00:00,0.0
2024-08-21 16:00:00+00:00,0.0
2024-08-21 17:00:00+00:00,0.0
2024-08-21 18:00:00+00:00,0.0
2024-08-21 19:00:00+00:00,0.0
2024-08-22 13:00:00+00:00,0.0
2024-08-22 14:00:00+00:00,0.0
2024-08-22 15:00:00+00:00,0.0
2024-08-22 16:00:00+00:00,0.0
2024-08-22 17:00:00+00:00,0.0
2024-08-22 18:00:00+00:00,0.0
2024-08-22 19:00:00+00:00,0.0
2024-08-23 13:00:00+00:00,0.0
2024-08-23 14:00:00+00:00,0.0
2024-08-23 15:00:00+00:00,0.0
2024-08-23 16:00:00+00:00,0.0
2024-08-23 17:00:00+00:00,0.0
2024-08-23 18:00:00+00:00,0.0
2024-08-23 19:00:00+00:00,0.0
2024-08-26 13:00:00+00:00,0.0
2024-08-26 14:00:00+00:00,0.0
2024-08-26 15:00:00+00:00,0.0
2024-08-26 16:00:00+00:00,0.0
2024-08-26 17:00:00+00:00,0.0
2024-08-26 18:00:00+00:00,0.0
2024-08-26 19:00:00+00:00,0.0
2024-08-27 13:00:00+00:00,0.0
2024-08-27 14:00:00+00:00,0.0
2024-08-27 15:00:00+00:00,0.0
2024-08-27 16:00:00+00:00,0.0
2024-08-27 17:00:00+00:00,0.0
2024-08-27 18:00:00+00:00,0.0
2024-08-27 19:00:00+00:00,0.0
2024-08-28 13:00:00+00:00,0.0
2024-08-28 14:00:00+00:00,0.0
2024-08-28 15:00:00+00:00,0.0
2024-08-28 16:00:00+00:00,0.0
2024-08-28 17:00:00+00:00,0.0
2024-08-28 18:00:00+00:00,0.0
2024-08-28 19:00:00+00:00,0.0
2024-08-29 13:00:00+00:00,0.0
2024-08-29 14:00:00+00:00,0.0
2024-08-29 15:00:00+00:00,0.0
2024-08-29 16:00:00+00:00,0.0
2024-08-29 17:00:00+00:00,0.0
2024-08-29 18:00:00+00:00,0.0
2024-08-29 19:00:00+00:00,0.0
2024-08-30 13:00:00+00:00,0.0
2024-08-30 14:00:00+00:00,0.0
2024-08-30 15:00:00+00:00,0.0
2024-08-30 16:00:00+00:00,0.0
2024-08-30 17:00:00+00:00,0.0
2024-08-30 18:00:00+00:00,0.0
2024-08-30 19:00:00+00:00,0.0
2024-09-03 13:00:00+00:00,0.0
2024-09-03 14:00:00+00:00,0.0
2024-09-03 15:00:00+00:00,0.0
2024-09-03 16:00:00+00:00,0.0
2024-09-03 17:00:00+00:00,0.0
2024-09-03 18:00:00+00:00,0.0
2024-09-03 19:00:00+00:00,0.0
2024-09-04 13:00:00+00:00,0.0
2024-09-04 14:00:00+00:00,0.0
2024-09-04 15:00:00+00:00,0.0
2024-09-04 16:00:00+00:00,0.0
2024-09-04 17:00:00+00:00,0.0
2024-09-04 18:00:00+00:00,0.0
2024-09-04 19:00:00+00:00,0.0
2024-09-05 13:00:00+00:00,0.0
2024-09-05 14:00:00+00:00,0.0
2024-09-05 15:00:00+00:00,0.0
2024-09-05 16:00:00+00:00,0.0
2024-09-05 17:00:00+00:00,0.0
2024-09-05 18:00:00+00:00,0.0
2024-09-05 19:00:00+00:00,0.0
2024-09-06 13:00:00+00:00,0.0
2024-09-06 14:00:00+00:00,0.0
2024-09-06 15:00:00+00:00,0.0
2024-09-06 16:00:00+00:00,0.0
2024-09-06 17:00:00+00:00,0.0
2024-09-06 18:00:00+00:00,0.0
2024-09-06 19:00:00+00:00,0.0
2024-09-09 13:00:00+00:00,0.0
2024-09-09 14:00:00+00:00,0.0
2024-09-09 15:00:00+00:00,0.0
2024-09-09 16:00:00+00:00,0.0
2024-09-09 17:00:00+00:00,0.0
2024-09-09 18:00:00+00:00,0.0
2024-09-09 19:00:00+00:00,0.0
2024-09-10 13:00:00+00:00,0.0
2024-09-10 14:00:00+00:00,0.0
2024-09-10 15:00:00+00:00,0.0
2024-09-10 16:00:00+00:00,0.0
2024-09-10 17:00:00+00:00,0.0
2024-09-10 18:00:00+00:00,0.0
2024-09-10 19:00:00+00:00,0.0
2024-09-11 13:00:00+00:00,0.0
2024-09-11 14:00:00+00:00,0.0
2024-09-11 15:00:00+00:00,0.0
2024-09-11 16:00:00+00:00,0.0
2024-09-11 17:00:00+00:00,0.0
2024-09-11 18:00:00+00:00,0.0
2024-09-11 19:00:00+00:00,0.0
2024-09-12 13:00:00+00:00,0.0
2024-09-12 14:00:00+00:00,0.0
2024-09-12 15:00:00+00:00,0.0
2024-09-12 16:00:00+00:00,0.0
2024-09-12 17:00:00+00:00,0.0
2024-09-12 18:00:00+00:00,0.0
2024-09-12 19:00:00+00:00,0.0
2024-09-13 13:00:00+00:00,0.0
2024-09-13 14:00:00+00:00,0.0
2024-09-13 15:00:00+00:00,0.0
2024-09-13 16:00:00+00:00,0.0
2024-09-13 17:00:00+00:00,0.0
2024-09-13 18:00:00+00:00,0.0
2024-09-13 19:00:00+00:00,0.0
2024-09-16 13:00:00+00:00,0.0
2024-09-16 14:00:00+00:00,0.0
2024-09-16 15:00:00+00:00,0.0
2024-09-16 16:00:00+00:00,0.0
2024-09-16 17:00:00+00:00,0.0
2024-09-16 18:00:00+00:00,0.0
2024-09-16 19:00:00+00:00,0.0
2024-09-17 13:00:00+00:00,0.0
2024-09-17 14:00:00+00:00,0.0
2024-09-17 15:00:00+00:00,0.0
2024-09-17 16:00:00+00:00,0.0
2024-09-17 17:00:00+00:00,0.0
2024-09-17 18:00:00+00:00,0.0
2024-09-17 19:00:00+00:00,0.0
2024-09-18 13:00:00+00:00,0.0
2024-09-18 14:00:00+00:00,0.0
2024-09-18 15:00:00+00:00,0.0
2024-09-18 16:00:00+00:00,0.0
2024-09-18 17:00:00+00:00,0.0
2024-09-18 18:00:00+00:00,0.0
2024-09-18 19:00:00+00:00,0.0
2024-09-19 13:00:00+00:00,0.0
2024-09-19 14:00:00+00:00,0.0
2024-09-19 15:00:00+00:00,0.0
2024-09-19 16:00:00+00:00,0.0
2024-09-19 17:00:00+00:00,0.0
2024-09-19 18:00:00+00:00,0.0
2024-09-19 19:00:00+00:00,0.0
2024-09-20 13:00:00+00:00,0.0
2024-09-20 14:00:00+00:00,0.0
2024-09-20 15:00:00+00:00,0.0
2024-09-20 16:00:00+00:00,0.0
2024-09-20 17:00:00+00:00,0.0
2024-09-20 18:00:00+00:00,0.0
2024-09-20 19:00:00+00:00,0.0
2024-09-23 13:00:00+00:00,0.0
2024-09-23 14:00:00+00:00,0.0
2024-09-23 15:00:00+00:00,0.0
2024-09-23 16:00:00+00:00,0.0
2024-09-23 17:00:00+00:00,0.0
2024-09-23 18:00:00+00:00,0.0
2024-09-23 19:00:00+00:00,0.0
2024-09-24 13:00:00+00:00,0.0
2024-09-24 14:00:00+00:00,0.0
2024-09-24 15:00:00+00:00,0.0
2024-09-24 16:00:00+00:00,0.0
2024-09-24 17:00:00+00:00,0.0
2024-09-24 18:00:00+00:00,0.0
2024-09-24 19:00:00+00:00,0.0
2024-09-25 13:00:00+00:00,0.0
2024-09-25 14:00:00+00:00,0.0
2024-09-25 15:00:00+00:00,0.0
2024-09-25 16:00:00+00:00,0.0
2024-09-25 17:00:00+00:00,0.0
2024-09-25 18:00:00+00:00,0.0
2024-09-25 19:00:00+00:00,0.0
2024-09-26 13:00:00+00:00,0.0
2024-09-26 14:00:00+00:00,0.0
2024-09-26 15:00:00+00:00,0.0
2024-09-26 16:00:00+00:00,0.0
2024-09-26 17:00:00+00:00,0.0
2024-09-26 18:00:00+00:00,0.0
2024-09-26 19:00:00+00:00,0.0
2024-09-27 13:00:00+00:00,0.0
2024-09-27 14:00:00+00:00,0.0
2024-09-27 15:00:00+00:00,0.0
2024-09-27 16:00:00+00:00,0.0
2024-09-27 17:00:00+00:00,0.0
2024-09-27 18:00:00+00:00,0.0
2024-09-27 19:00:00+00:00,0.0
2024-09-30 13:00:00+00:00,0.0
2024-09-30 14:00:00+00:00,0.0
2024-09-30 15:00:00+00:00,0.0
2024-09-30 16:00:00+00:00,0.0
2024-09-30 17:00:00+00:00,0.0
2024-09-30 18:00:00+00:00,0.0
2024-09-30 19:00:00+00:00,0.0
2024-10-01 13:00:00+00:00,0.0
2024-10-01 14:00:00+00:00,0.0
2024-10-01 15:00:00+00:00,0.0
2024-10-01 16:00:00+00:00,0.0
2024-10-01 17:00:00+00:00,0.0
2024-10-01 18:00:00+00:00,0.0
2024-10-01 19:00:00+00:00,0.0
2024-10-02 13:00:00+00:00,0.0
2024-10-02 14:00:00+00:00,0.0
2024-10-02 15:00:00+00:00,0.0
2024-10-02 16:00:00+00:00,0.0
2024-10-02 17:00:00+00:00,0.0
2024-10-02 18:00:00+00:00,0.0
2024-10-02 19:00:00+00:00,0.0
2024-10-03 13:00:00+00:00,0.0
2024-10-03 14:00:00+00:00,0.0
2024-10-03 15:00:00+00:00,0.0
2024-10-03 16:00:00+00:00,0.0
2024-10-03 17:00:00+00:00,0.0
2024-10-03 18:00:00+00:00,0.0
2024-10-03 19:00:00+00:00,0.0
2024-10-04 13:00:00+00:00,0.0
2024-10-04 14:00:00+00:00,0.0
2024-10-04 15:00:00+00:00,0.0
2024-10-04 16:00:00+00:00,0.0
2024-10-04 17:00:00+00:00,0.0
2024-10-04 18:00:00+00:00,0.0
2024-10-04 19:00:00+00:00,0.0
2024-10-07 13:00:00+00:00,-81.08002383845412
2024-10-07 14:00:00+00:00,-110.43665322299049
2024-10-07 15:00:00+00:00,-127.33370598055274
2024-10-07 16:00:00+00:00,-118.41118128645581
2024-10-07 17:00:00+00:00,-93.42584411171103
2024-10-07 18:00:00+00:00,-113.60291929159892
2024-10-07 19:00:00+00:00,-64.71275248047287
2024-10-08 13:00:00+00:00,135.50190366980326
2024-10-08 14:00:00+00:00,138.7356439712218
2024-10-08 15:00:00+00:00,151.49874222089508
2024-10-08 16:00:00+00:00,115.66630754230752
2024-10-08 17:00:00+00:00,135.049421497501
2024-10-08 18:00:00+00:00,125.38847641561489
2024-10-08 19:00:00+00:00,123.62995419146051
2024-10-09 13:00:00+00:00,134.68342315282644
2024-10-09 14:00:00+00:00,100.01756825275721
2024-10-09 15:00:00+00:00,99.46602402455132
2024-10-09 16:00:00+00:00,94.10414678151211
2024-10-09 17:00:00+00:00,88.20059212444755
2024-10-09 18:00:00+00:00,64.8383771567252
2024-10-09 19:00:00+00:00,73.94664424506254
2024-10-10 13:00:00+00:00,32.75537474965473
2024-10-10 14:00:00+00:00,69.28591661220298
2024-10-10 15:00:00+00:00,39.05464873332278
2024-10-10 16:00:00+00:00,42.34502948669328
2024-10-10 17:00:00+00:00,21.9084396049116
2024-10-10 18:00:00+00:00,17.206831281350695
2024-10-10 19:00:00+00:00,19.033679979347568
2024-10-11 13:00:00+00:00,-12.639632836848477
2024-10-11 14:00:00+00:00,-5.398979201849125
2024-10-11 15:00:00+00:00,-16.121558102872527
2024-10-11 16:00:00+00:00,-43.27275131850973
2024-10-11 17:00:00+00:00,-36.328269251088386
2024-10-11 18:00:00+00:00,-22.950331961811088
2024-10-11 19:00:00+00:00,10.519426356622212
2024-10-14 13:00:00+00:00,54.40511451355896
2024-10-14 14:00:00+00:00,51.388334661713856
2024-10-14 15:00:00+00:00,69.21174038649274
2024-10-14 16:00:00+00:00,49.4528804376552
2024-10-14 17:00:00+00:00,50.753607302752236
2024-10-14 18:00:00+00:00,66.00257023934788
2024-10-14 19:00:00+00:00,42.01682500289619
2024-10-15 13:00:00+00:00,198.971193335979
2024-10-15 14:00:00+00:00,170.92819561868754
2024-10-15 15:00:00+00:00,172.67311411648197
2024-10-15 16:00:00+00:00,179.97244305429317
2024-10-15 17:00:00+00:00,179.69529432328676
2024-10-15 18:00:00+00:00,195.17351001298482
2024-10-15 19:00:00+00:00,226.68713119363997
2024-10-16 13:00:00+00:00,218.75843632259034
2024-10-16 14:00:00+00:00,229.0229895676622
2024-10-16 15:00:00+00:00,218.07035831191118
2024-10-16 16:00:00+00:00,206.6087712305712
2024-10-16 17:00:00+00:00,182.7223340933985
2024-10-16 18:00:00+00:00,195.12428755526213
2024-10-16 19:00:00+00:00,212.6140670616967
2024-10-17 13:00:00+00:00,229.80227680019894
2024-10-17 14:00:00+00:00,260.76877412750326
2024-10-17 15:00:00+00:00,264.8636759924023
2024-10-17 16:00:00+00:00,255.87261301536512
2024-10-17 17:00:00+00:00,252.05192777914635
2024-10-17 18:00:00+00:00,252.28186096866247
2024-10-17 19:00:00+00:00,247.71187393034216
2024-10-18 13:00:00+00:00,307.81091720453406
2024-10-18 14:00:00+00:00,317.4615686646365
2024-10-18 15:00:00+00:00,281.51066164580465
2024-10-18 16:00:00+00:00,297.2891656327401
2024-10-18 17:00:00+00:00,291.44731925918904
2024-10-18 18:00:00+00:00,267.497528370249
2024-10-18 19:00:00+00:00,270.5526492655027
2024-10-21 13:00:00+00:00,254.78590626302855
2024-10-21 14:00:00+00:00,276.38296495149143
2024-10-21 15:00:00+00:00,307.25115037452
2024-10-21 16:00:00+00:00,297.24776867995257
2024-10-21 17:00:00+00:00,315.7679436445377
2024-10-21 18:00:00+00:00,317.73682641477114
2024-10-21 19:00:00+00:00,329.9164769372266
2024-10-22 13:00:00+00:00,341.1514547795786
2024-10-22 14:00:00+00:00,327.7606100651312
2024-10-22 15:00:00+00:00,325.3394010624387
2024-10-22 16:00:00+00:00,337.5924097211806
2024-10-22 17:00:00+00:00,349.9653739476136
2024-10-22 18:00:00+00:00,364.9822273554595
2024-10-22 19:00:00+00:00,379.2027466886718
2024-10-23 13:00:00+00:00,379.2027466886718
2024-10-23 14:00:00+00:00,379.2027466886718
2024-10-23 15:00:00+00:00,379.2027466886718
2024-10-23 16:00:00+00:00,379.2027466886718
2024-10-23 17:00:00+00:00,379.2027466886718
2024-10-23 18:00:00+00:00,379.2027466886718
2024-10-23 19:00:00+00:00,379.2027466886718
2024-10-24 13:00:00+00:00,379.2027466886718
2024-10-24 14:00:00+00:00,379.2027466886718
2024-10-24 15:00:00+00:00,379.2027466886718
2024-10-24 16:00:00+00:00,379.2027466886718
2024-10-24 17:00:00+00:00,379.2027466886718
2024-10-24 18:00:00+00:00,379.2027466886718
2024-10-24 19:00:00+00:00,379.2027466886718
2024-10-25 13:00:00+00:00,379.2027466886718
2024-10-25 14:00:00+00:00,379.2027466886718
2024-10-25 15:00:00+00:00,379.2027466886718
2024-10-25 16:00:00+00:00,379.2027466886718
2024-10-25 17:00:00+00:00,379.2027466886718
2024-10-25 18:00:00+00:00,379.2027466886718
2024-10-25 19:00:00+00:00,379.2027466886718
2024-10-28 13:00:00+00:00,379.2027466886718
2024-10-28 14:00:00+00:00,379.2027466886718
2024-10-28 15:00:00+00:00,379.2027466886718
2024-10-28 16:00:00+00:00,379.2027466886718
2024-10-28 17:00:00+00:00,379.2027466886718
2024-10-28 18:00:00+00:00,379.2027466886718
2024-10-28 19:00:00+00:00,379.2027466886718
2024-10-29 13:00:00+00:00,379.2027466886718
2024-10-29 14:00:00+00:00,379.2027466886718
2024-10-29 15:00:00+00:00,379.2027466886718
2024-10-29 16:00:00+00:00,379.2027466886718
2024-10-29 17:00:00+00:00,379.2027466886718
2024-10-29 18:00:00+00:00,379.2027466886718
2024-10-29 19:00:00+00:00,379.2027466886718
2024-10-30 13:00:00+00:00,379.2027466886718
2024-10-30 14:00:00+00:00,379.2027466886718
2024-10-30 15:00:00+00:00,379.2027466886718
2024-10-30 16:00:00+00:00,379.2027466886718
2024-10-30 17:00:00+00:00,379.2027466886718
2024-10-30 18:00:00+00:00,379.2027466886718
2024-10-30 19:00:00+00:00,379.2027466886718
2024-10-31 13:00:00+00:00,379.2027466886718
2024-10-31 14:00:00+00:00,379.2027466886718
2024-10-31 15:00:00+00:00,379.2027466886718
2024-10-31 16:00:00+00:00,379.2027466886718
2024-10-31 17:00:00+00:00,379.2027466886718
2024-10-31 18:00:00+00:00,379.2027466886718
2024-10-31 19:00:00+00:00,379.2027466886718
2024-11-01 13:00:00+00:00,379.2027466886718
2024-11-01 14:00:00+00:00,379.2027466886718
2024-11-01 15:00:00+00:00,379.2027466886718
2024-11-01 16:00:00+00:00,379.2027466886718
2024-11-01 17:00:00+00:00,379.2027466886718
2024-11-01 18:00:00+00:00,379.2027466886718
2024-11-01 19:00:00+00:00,379.2027466886718
2024-11-04 14:00:00+00:00,379.2027466886718
2024-11-04 15:00:00+00:00,379.2027466886718
2024-11-04 16:00:00+00:00,379.2027466886718
2024-11-04 17:00:00+00:00,379.2027466886718
2024-11-04 18:00:00+00:00,379.2027466886718
2024-11-04 19:00:00+00:00,379.2027466886718
2024-11-04 20:00:00+00:00,379.2027466886718
2024-11-05 14:00:00+00:00,379.2027466886718
2024-11-05 15:00:00+00:00,379.2027466886718
2024-11-05 16:00:00+00:00,379.2027466886718
2024-11-05 17:00:00+00:00,379.2027466886718
2024-11-05 18:00:00+00:00,379.2027466886718
2024-11-05 19:00:00+00:00,379.2027466886718
2024-11-05 20:00:00+00:00,379.2027466886718
2024-11-06 14:00:00+00:00,379.2027466886718
2024-11-06 15:00:00+00:00,379.2027466886718
2024-11-06 16:00:00+00:00,379.2027466886718
2024-11-06 17:00:00+00:00,379.2027466886718
2024-11-06 18:00:00+00:00,379.2027466886718
2024-11-06 19:00:00+00:00,379.2027466886718
2024-11-06 20:00:00+00:00,379.2027466886718
2024-11-07 14:00:00+00:00,379.2027466886718
2024-11-07 15:00:00+00:00,379.2027466886718
2024-11-07 16:00:00+00:00,379.2027466886718
2024-11-07 17:00:00+00:00,379.2027466886718
2024-11-07 18:00:00+00:00,379.2027466886718
2024-11-07 19:00:00+00:00,379.2027466886718
2024-11-07 20:00:00+00:00,379.2027466886718
2024-11-08 14:00:00+00:00,17.93225924623158
2024-11-08 15:00:00+00:00,-54.50748674008024
2024-11-08 16:00:00+00:00,-69.36519269371779
2024-11-08 17:00:00+00:00,-127.88803978765948
2024-11-08 18:00:00+00:00,-156.26399036116743
2024-11-08 19:00:00+00:00,-156.73213497224756
2024-11-08 20:00:00+00:00,-129.7209860775393
2024-11-11 14:00:00+00:00,-136.0636496460002
2024-11-11 15:00:00+00:00,-46.618832947124346
2024-11-11 16:00:00+00:00,-50.18678684597684
2024-11-11 17:00:00+00:00,-35.181497031849496
2024-11-11 18:00:00+00:00,-65.68114173763689
2024-11-11 19:00:00+00:00,-48.00044120480351
2024-11-11 20:00:00+00:00,-53.37931140349732
2024-11-12 14:00:00+00:00,-52.009942313773294
2024-11-12 15:00:00+00:00,-70.23120446432858
2024-11-12 16:00:00+00:00,-69.66348483160156
2024-11-12 17:00:00+00:00,-55.83678687168033
2024-11-12 18:00:00+00:00,-60.12097955374384
2024-11-12 19:00:00+00:00,-59.41793625694937
2024-11-12 20:00:00+00:00,-69.97777154323234
2024-11-13 14:00:00+00:00,-81.50917452569708
2024-11-13 15:00:00+00:00,-111.7429454294145
2024-11-13 16:00:00+00:00,-147.79787975564832
2024-11-13 17:00:00+00:00,-137.5984355554118
2024-11-13 18:00:00+00:00,-119.61262058087259
2024-11-13 19:00:00+00:00,-115.48748388508174
2024-11-13 20:00:00+00:00,-120.27812181275587
2024-11-14 14:00:00+00:00,-118.6651106240192
2024-11-14 15:00:00+00:00,-96.50777371879892
2024-11-14 16:00:00+00:00,-88.1134912625865
2024-11-14 17:00:00+00:00,-109.06630619812913
2024-11-14 18:00:00+00:00,-147.9682971387557
2024-11-14 19:00:00+00:00,-184.95105334459652
2024-11-14 20:00:00+00:00,-189.78423390060206
2024-11-15 14:00:00+00:00,-242.3985157269084
2024-11-15 15:00:00+00:00,-170.15994775861856
2024-11-15 16:00:00+00:00,-176.01216065521604
2024-11-15 17:00:00+00:00,-176.4667715943345
2024-11-15 18:00:00+00:00,-162.5253943660536
2024-11-15 19:00:00+00:00,-172.43832842182314
2024-11-15 20:00:00+00:00,-175.4501875996143
2024-11-18 14:00:00+00:00,-232.4464690314764
2024-11-18 15:00:00+00:00,-224.5323595556819
2024-11-18 16:00:00+00:00,-267.68049007123625
2024-11-18 17:00:00+00:00,-277.66195963535114
2024-11-18 18:00:00+00:00,-271.80878241032167
2024-11-18 19:00:00+00:00,-286.63807939552584
2024-11-18 20:00:00+00:00,-266.66614047937406
2024-11-19 14:00:00+00:00,-253.32105868769403
2024-11-19 15:00:00+00:00,-237.43971123859473
2024-11-19 16:00:00+00:00,-257.89423518443226
2024-11-19 17:00:00+00:00,-225.57998872861467
2024-11-19 18:00:00+00:00,-227.26207395521837
2024-11-19 19:00:00+00:00,-197.72253716900917
2024-11-19 20:00:00+00:00,-193.99251789179698
2024-11-20 14:00:00+00:00,-234.35189402355644
2024-11-20 15:00:00+00:00,-206.9302430969432
2024-11-20 16:00:00+00:00,-196.55695152493018
2024-11-20 17:00:00+00:00,-206.5336868610286
2024-11-20 18:00:00+00:00,-212.58284855026957
2024-11-20 19:00:00+00:00,-245.47958069998205
2024-11-20 20:00:00+00:00,-246.61118602523362
2024-11-21 14:00:00+00:00,-274.33489288681335
2024-11-21 15:00:00+00:00,-286.59678192482255
2024-11-21 16:00:00+00:00,-251.3065445673095
2024-11-21 17:00:00+00:00,-218.31662301527382
2024-11-21 18:00:00+00:00,-198.40680353732444
2024-11-21 19:00:00+00:00,-204.7621720400168
2024-11-21 20:00:00+00:00,-177.9864660254556
2024-11-22 14:00:00+00:00,-194.1331309584514
2024-11-22 15:00:00+00:00,-220.46154318577004
2024-11-22 16:00:00+00:00,-236.73669712983195
2024-11-22 17:00:00+00:00,-213.17711623758106
2024-11-22 18:00:00+00:00,-213.04381963513836
2024-11-22 19:00:00+00:00,-217.7512490527807
2024-11-22 20:00:00+00:00,-219.59225850824194
2024-11-25 14:00:00+00:00,-180.94915822666968
2024-11-25 15:00:00+00:00,-127.29159484833124
2024-11-25 16:00:00+00:00,-64.36688415719146
2024-11-25 17:00:00+00:00,-61.12545613792487
2024-11-25 18:00:00+00:00,-38.070135660243594
2024-11-25 19:00:00+00:00,-19.300710196792533
2024-11-25 20:00:00+00:00,2.8903261667801203
2024-11-26 14:00:00+00:00,-18.785570884262512
2024-11-26 15:00:00+00:00,15.754133852390922
2024-11-26 16:00:00+00:00,-4.423773340446676
2024-11-26 17:00:00+00:00,-5.330468325471077
2024-11-26 18:00:00+00:00,-59.99699196217523
2024-11-26 19:00:00+00:00,-54.53572048178245
2024-11-26 20:00:00+00:00,-52.3672288282739
2024-11-27 14:00:00+00:00,-97.54685354445314
2024-11-27 15:00:00+00:00,-111.93552455997636
2024-11-27 16:00:00+00:00,-120.04192432716587
2024-11-27 17:00:00+00:00,-83.46733650712669
2024-11-27 18:00:00+00:00,-71.9084994322688
2024-11-27 19:00:00+00:00,-66.09457461428804
2024-11-27 20:00:00+00:00,-67.27910232190857
2024-11-29 14:00:00+00:00,-73.31208810816923
2024-11-29 15:00:00+00:00,-63.030881130005156
2024-11-29 16:00:00+00:00,-75.8680502091339
2024-12-02 14:00:00+00:00,41.59441199630251
2024-12-02 15:00:00+00:00,80.232590261796
2024-12-02 16:00:00+00:00,97.58305885562982
2024-12-02 17:00:00+00:00,60.10172711678646
2024-12-02 18:00:00+00:00,38.83119548094419
2024-12-02 19:00:00+00:00,29.168132600186386
2024-12-02 20:00:00+00:00,47.95075355005423
2024-12-03 14:00:00+00:00,49.997248783327
2024-12-03 15:00:00+00:00,13.72315069399081
2024-12-03 16:00:00+00:00,11.024481472666672
2024-12-03 17:00:00+00:00,-11.038811893545411
2024-12-03 18:00:00+00:00,-33.42849938192802
2024-12-03 19:00:00+00:00,-3.2934131728230263
2024-12-03 20:00:00+00:00,14.325192707716699
2024-12-04 14:00:00+00:00,165.08057667613852
2024-12-04 15:00:00+00:00,128.40992235088797
2024-12-04 16:00:00+00:00,145.0568034534948
2024-12-04 17:00:00+00:00,156.4422185808108
2024-12-04 18:00:00+00:00,145.13175582590227
2024-12-04 19:00:00+00:00,116.1673875817116
2024-12-04 20:00:00+00:00,104.8481566275963
2024-12-05 14:00:00+00:00,39.48830813012333
2024-12-05 15:00:00+00:00,67.67519813154772
2024-12-05 16:00:00+00:00,68.62479608958807
2024-12-05 17:00:00+00:00,41.67592032332861
2024-12-05 18:00:00+00:00,84.95691666097704
2024-12-05 19:00:00+00:00,47.30865922325319
2024-12-05 20:00:00+00:00,59.005021850866974
2024-12-06 14:00:00+00:00,232.50178598715462
2024-12-06 15:00:00+00:00,190.93388197109596
2024-12-06 16:00:00+00:00,184.93436975730464
2024-12-06 17:00:00+00:00,185.4075806977947
2024-12-06 18:00:00+00:00,176.25256856495932
2024-12-06 19:00:00+00:00,162.48061313411944
2024-12-06 20:00:00+00:00,165.9537119389188
2024-12-09 14:00:00+00:00,154.006232978664
2024-12-09 15:00:00+00:00,151.32307207477078
2024-12-09 16:00:00+00:00,137.68047324068974
2024-12-09 17:00:00+00:00,124.2571661696847
2024-12-09 18:00:00+00:00,147.64558366512293
2024-12-09 19:00:00+00:00,132.09877591481225
2024-12-09 20:00:00+00:00,204.09492595702525
2024-12-10 14:00:00+00:00,129.24133954638194
2024-12-10 15:00:00+00:00,160.12651310010995
2024-12-10 16:00:00+00:00,192.5242532531469
2024-12-10 17:00:00+00:00,197.56305568402294
2024-12-10 18:00:00+00:00,204.17905059935677
2024-12-10 19:00:00+00:00,240.97353973029485
2024-12-10 20:00:00+00:00,257.8687214331617
2024-12-11 14:00:00+00:00,250.2738949365498
2024-12-11 15:00:00+00:00,290.0381998046442
2024-12-11 16:00:00+00:00,278.79610171433444
2024-12-11 17:00:00+00:00,270.6038873655995
2024-12-11 18:00:00+00:00,218.52100728004453
2024-12-11 19:00:00+00:00,201.86776534402208
2024-12-11 20:00:00+00:00,210.95565968276202
2024-12-12 14:00:00+00:00,269.39918908185894
2024-12-12 15:00:00+00:00,249.37589835808865
2024-12-12 16:00:00+00:00,233.48150692486755
2024-12-12 17:00:00+00:00,222.53050838901342
2024-12-12 18:00:00+00:00,246.50327908934946
2024-12-12 19:00:00+00:00,251.98019064458944
2024-12-12 20:00:00+00:00,264.9301550176908
2024-12-13 14:00:00+00:00,278.86189850563943
2024-12-13 15:00:00+00:00,266.57365369742513
2024-12-13 16:00:00+00:00,244.17550870808358
2024-12-13 17:00:00+00:00,231.6214863146069
2024-12-13 18:00:00+00:00,228.75241237234314
2024-12-13 19:00:00+00:00,233.30581297217066
2024-12-13 20:00:00+00:00,232.70775426384046
2024-12-16 14:00:00+00:00,257.3397933626187
2024-12-16 15:00:00+00:00,284.0786828359347
2024-12-16 16:00:00+00:00,288.6309632328849
2024-12-16 17:00:00+00:00,338.1666494166826
2024-12-16 18:00:00+00:00,335.6313732299324
2024-12-16 19:00:00+00:00,351.11613563055414
2024-12-16 20:00:00+00:00,333.0691780263128
2024-12-17 14:00:00+00:00,481.00068100890576
2024-12-17 15:00:00+00:00,481.00068100890576
2024-12-17 16:00:00+00:00,481.00068100890576
2024-12-17 17:00:00+00:00,481.00068100890576
2024-12-17 18:00:00+00:00,481.00068100890576
2024-12-17 19:00:00+00:00,481.00068100890576
2024-12-17 20:00:00+00:00,481.00068100890576
2024-12-18 14:00:00+00:00,481.00068100890576
2024-12-18 15:00:00+00:00,481.00068100890576
2024-12-18 16:00:00+00:00,481.00068100890576
2024-12-18 17:00:00+00:00,481.00068100890576
2024-12-18 18:00:00+00:00,481.00068100890576
2024-12-18 19:00:00+00:00,481.00068100890576
2024-12-18 20:00:00+00:00,481.00068100890576
2024-12-19 14:00:00+00:00,481.00068100890576
2024-12-19 15:00:00+00:00,481.00068100890576
2024-12-19 16:00:00+00:00,481.00068100890576
2024-12-19 17:00:00+00:00,481.00068100890576
2024-12-19 18:00:00+00:00,481.00068100890576
2024-12-19 19:00:00+00:00,481.00068100890576
2024-12-19 20:00:00+00:00,481.00068100890576
2024-12-20 14:00:00+00:00,481.00068100890576
2024-12-20 15:00:00+00:00,481.00068100890576
2024-12-20 16:00:00+00:00,481.00068100890576
2024-12-20 17:00:00+00:00,481.00068100890576
2024-12-20 18:00:00+00:00,481.00068100890576
2024-12-20 19:00:00+00:00,481.00068100890576
2024-12-20 20:00:00+00:00,481.00068100890576
2024-12-23 14:00:00+00:00,481.00068100890576
2024-12-23 15:00:00+00:00,481.00068100890576
2024-12-23 16:00:00+00:00,481.00068100890576
2024-12-23 17:00:00+00:00,481.00068100890576
2024-12-23 18:00:00+00:00,481.00068100890576
2024-12-23 19:00:00+00:00,481.00068100890576
2024-12-23 20:00:00+00:00,481.00068100890576
2024-12-24 14:00:00+00:00,481.00068100890576
2024-12-24 15:00:00+00:00,481.00068100890576
2024-12-24 16:00:00+00:00,481.00068100890576
2024-12-26 14:00:00+00:00,481.00068100890576
2024-12-26 15:00:00+00:00,481.00068100890576
2024-12-26 16:00:00+00:00,481.00068100890576
2024-12-26 17:00:00+00:00,481.00068100890576
2024-12-26 18:00:00+00:00,481.00068100890576
2024-12-26 19:00:00+00:00,481.00068100890576
2024-12-26 20:00:00+00:00,481.00068100890576
2024-12-27 14:00:00+00:00,481.00068100890576
2024-12-27 15:00:00+00:00,481.00068100890576
2024-12-27 16:00:00+00:00,481.00068100890576
2024-12-27 17:00:00+00:00,481.00068100890576
2024-12-27 18:00:00+00:00,481.00068100890576
2024-12-27 19:00:00+00:00,481.00068100890576
2024-12-27 20:00:00+00:00,481.00068100890576
2024-12-30 14:00:00+00:00,481.00068100890576
2024-12-30 15:00:00+00:00,481.00068100890576
2024-12-30 16:00:00+00:00,481.00068100890576
2024-12-30 17:00:00+00:00,481.00068100890576
2024-12-30 18:00:00+00:00,481.00068100890576
2024-12-30 19:00:00+00:00,481.00068100890576
2024-12-30 20:00:00+00:00,481.00068100890576
2024-12-31 14:00:00+00:00,481.00068100890576
2024-12-31 15:00:00+00:00,481.00068100890576
2024-12-31 16:00:00+00:00,481.00068100890576
2024-12-31 17:00:00+00:00,481.00068100890576
2024-12-31 18:00:00+00:00,481.00068100890576
2024-12-31 19:00:00+00:00,481.00068100890576
2024-12-31 20:00:00+00:00,481.00068100890576
2025-01-02 14:00:00+00:00,481.00068100890576
2025-01-02 15:00:00+00:00,481.00068100890576
2025-01-02 16:00:00+00:00,481.00068100890576
2025-01-02 17:00:00+00:00,481.00068100890576
2025-01-02 18:00:00+00:00,481.00068100890576
2025-01-02 19:00:00+00:00,481.00068100890576
2025-01-02 20:00:00+00:00,481.00068100890576
2025-01-03 14:00:00+00:00,481.00068100890576
2025-01-03 15:00:00+00:00,481.00068100890576
2025-01-03 16:00:00+00:00,481.00068100890576
2025-01-03 17:00:00+00:00,481.00068100890576
2025-01-03 18:00:00+00:00,481.00068100890576
2025-01-03 19:00:00+00:00,481.00068100890576
2025-01-03 20:00:00+00:00,481.00068100890576
2025-01-06 14:00:00+00:00,481.00068100890576
2025-01-06 15:00:00+00:00,481.00068100890576
2025-01-06 16:00:00+00:00,481.00068100890576
2025-01-06 17:00:00+00:00,481.00068100890576
2025-01-06 18:00:00+00:00,481.00068100890576
2025-01-06 19:00:00+00:00,481.00068100890576
2025-01-06 20:00:00+00:00,481.00068100890576
2025-01-07 14:00:00+00:00,481.00068100890576
2025-01-07 15:00:00+00:00,481.00068100890576
2025-01-07 16:00:00+00:00,481.00068100890576
2025-01-07 17:00:00+00:00,481.00068100890576
2025-01-07 18:00:00+00:00,481.00068100890576
2025-01-07 19:00:00+00:00,481.00068100890576
2025-01-07 20:00:00+00:00,481.00068100890576
2025-01-08 14:00:00+00:00,481.00068100890576
2025-01-08 15:00:00+00:00,481.00068100890576
2025-01-08 16:00:00+00:00,481.00068100890576
2025-01-08 17:00:00+00:00,481.00068100890576
2025-01-08 18:00:00+00:00,481.00068100890576
2025-01-08 19:00:00+00:00,481.00068100890576
2025-01-08 20:00:00+00:00,481.00068100890576
2025-01-10 14:00:00+00:00,481.00068100890576
2025-01-10 15:00:00+00:00,481.00068100890576
2025-01-10 16:00:00+00:00,481.00068100890576
2025-01-10 17:00:00+00:00,481.00068100890576
2025-01-10 18:00:00+00:00,481.00068100890576
2025-01-10 19:00:00+00:00,481.00068100890576
2025-01-10 20:00:00+00:00,481.00068100890576
2025-01-13 14:00:00+00:00,481.00068100890576
2025-01-13 15:00:00+00:00,481.00068100890576
2025-01-13 16:00:00+00:00,481.00068100890576
2025-01-13 17:00:00+00:00,481.00068100890576
2025-01-13 18:00:00+00:00,481.00068100890576
2025-01-13 19:00:00+00:00,481.00068100890576
2025-01-13 20:00:00+00:00,481.00068100890576
2025-01-14 14:00:00+00:00,481.00068100890576
2025-01-14 15:00:00+00:00,481.00068100890576
2025-01-14 16:00:00+00:00,481.00068100890576
2025-01-14 17:00:00+00:00,481.00068100890576
2025-01-14 18:00:00+00:00,481.00068100890576
2025-01-14 19:00:00+00:00,481.00068100890576
2025-01-14 20:00:00+00:00,481.00068100890576
2025-01-15 14:00:00+00:00,481.00068100890576
2025-01-15 15:00:00+00:00,481.00068100890576
2025-01-15 16:00:00+00:00,481.00068100890576
2025-01-15 17:00:00+00:00,481.00068100890576
2025-01-15 18:00:00+00:00,458.7074826734722
2025-01-15 19:00:00+00:00,449.96231442957003
2025-01-15 20:00:00+00:00,426.36892968292005
2025-01-16 14:00:00+00:00,424.8051880638991
2025-01-16 15:00:00+00:00,396.5740137176048
2025-01-16 16:00:00+00:00,397.582686846998
2025-01-16 17:00:00+00:00,395.053550182889
2025-01-16 18:00:00+00:00,387.44912939003643
2025-01-16 19:00:00+00:00,380.8438551944757
2025-01-16 20:00:00+00:00,351.9027337581852
2025-01-17 14:00:00+00:00,403.5420833046531
2025-01-17 15:00:00+00:00,423.22008912860315
2025-01-17 16:00:00+00:00,427.0338733503989
2025-01-17 17:00:00+00:00,436.80061685100634
2025-01-17 18:00:00+00:00,449.74252705203884
2025-01-17 19:00:00+00:00,442.2181653338134
2025-01-17 20:00:00+00:00,430.0362438261473
2025-01-21 14:00:00+00:00,463.1812531970768
2025-01-21 15:00:00+00:00,416.7228243991842
2025-01-21 16:00:00+00:00,442.8619299950192
2025-01-21 17:00:00+00:00,431.2061955900439
2025-01-21 18:00:00+00:00,468.29460511399066
2025-01-21 19:00:00+00:00,454.69983742931623
2025-01-21 20:00:00+00:00,412.07138766931047
2025-01-22 14:00:00+00:00,441.985164367224
2025-01-22 15:00:00+00:00,434.7848803159788
2025-01-22 16:00:00+00:00,418.8640147238993
2025-01-22 17:00:00+00:00,448.11434307354244
2025-01-22 18:00:00+00:00,492.1053335530588
2025-01-22 19:00:00+00:00,488.1244141032332
2025-01-22 20:00:00+00:00,526.6769703690428
2025-01-23 14:00:00+00:00,477.59190841643965
2025-01-23 15:00:00+00:00,548.2974167539517
2025-01-23 16:00:00+00:00,527.6178816256701
2025-01-23 17:00:00+00:00,521.5271973229709
2025-01-23 18:00:00+00:00,527.8005807327478
2025-01-23 19:00:00+00:00,549.8939428737585
2025-01-23 20:00:00+00:00,534.3373930635107
2025-01-24 14:00:00+00:00,610.3088850205393
2025-01-24 15:00:00+00:00,627.7695941780335
2025-01-24 16:00:00+00:00,628.6379193479687
2025-01-24 17:00:00+00:00,645.5370734713387
2025-01-24 18:00:00+00:00,624.3636918861291
2025-01-24 19:00:00+00:00,618.9098503599762
2025-01-24 20:00:00+00:00,630.2217982397017
2025-01-27 14:00:00+00:00,518.5957004610724
2025-01-27 15:00:00+00:00,589.9028388298126
2025-01-27 16:00:00+00:00,628.0258414324618
2025-01-27 17:00:00+00:00,643.9900423242132
2025-01-27 18:00:00+00:00,609.1741040624547
2025-01-27 19:00:00+00:00,608.2210666398533
2025-01-27 20:00:00+00:00,628.0515101147329
2025-01-28 14:00:00+00:00,709.1026327162541
2025-01-28 15:00:00+00:00,729.8191725742519
2025-01-28 16:00:00+00:00,735.3234476437149
2025-01-28 17:00:00+00:00,731.3935443516835
2025-01-28 18:00:00+00:00,722.5359591478181
2025-01-28 19:00:00+00:00,694.3411428001622
2025-01-28 20:00:00+00:00,714.4696231679253
2025-01-29 14:00:00+00:00,729.9657361906586
2025-01-29 15:00:00+00:00,704.5759903612063
2025-01-29 16:00:00+00:00,716.9469781593491
2025-01-29 17:00:00+00:00,730.0881716525363
2025-01-29 18:00:00+00:00,732.2122482621186
2025-01-29 19:00:00+00:00,710.9589338891011
2025-01-29 20:00:00+00:00,710.9880083171431
2025-01-30 14:00:00+00:00,668.4248247672249
2025-01-30 15:00:00+00:00,675.8975310995844
2025-01-30 16:00:00+00:00,741.9403190491043
2025-01-30 17:00:00+00:00,707.983397702542
2025-01-30 18:00:00+00:00,733.9812699460418
2025-01-30 19:00:00+00:00,735.636511282917
2025-01-30 20:00:00+00:00,740.8657905013476
2025-01-31 14:00:00+00:00,886.9704699649031
2025-01-31 15:00:00+00:00,864.8885835081298
2025-01-31 16:00:00+00:00,886.108603224176
2025-01-31 17:00:00+00:00,871.4032414965177
2025-01-31 18:00:00+00:00,924.1207384176781
2025-01-31 19:00:00+00:00,924.1207384176781
2025-01-31 20:00:00+00:00,924.1207384176781
2025-02-03 14:00:00+00:00,924.1207384176781
2025-02-03 15:00:00+00:00,924.1207384176781
2025-02-03 16:00:00+00:00,924.1207384176781
2025-02-03 17:00:00+00:00,924.1207384176781
2025-02-03 18:00:00+00:00,924.1207384176781
2025-02-03 19:00:00+00:00,924.1207384176781
2025-02-03 20:00:00+00:00,924.1207384176781
2025-02-04 14:00:00+00:00,924.1207384176781
2025-02-04 15:00:00+00:00,924.1207384176781
2025-02-04 16:00:00+00:00,924.1207384176781
2025-02-04 17:00:00+00:00,924.1207384176781
2025-02-04 18:00:00+00:00,924.1207384176781
2025-02-04 19:00:00+00:00,924.1207384176781
2025-02-04 20:00:00+00:00,924.1207384176781
2025-02-05 14:00:00+00:00,924.1207384176781
2025-02-05 15:00:00+00:00,924.1207384176781
2025-02-05 16:00:00+00:00,924.1207384176781
2025-02-05 17:00:00+00:00,924.1207384176781
2025-02-05 18:00:00+00:00,924.1207384176781
2025-02-05 19:00:00+00:00,924.1207384176781
2025-02-05 20:00:00+00:00,924.1207384176781
2025-02-06 14:00:00+00:00,924.1207384176781
2025-02-06 15:00:00+00:00,924.1207384176781
2025-02-06 16:00:00+00:00,924.1207384176781
2025-02-06 17:00:00+00:00,924.1207384176781
2025-02-06 18:00:00+00:00,924.1207384176781
2025-02-06 19:00:00+00:00,924.1207384176781
2025-02-06 20:00:00+00:00,924.1207384176781
2025-02-07 14:00:00+00:00,924.1207384176781
2025-02-07 15:00:00+00:00,924.1207384176781
2025-02-07 16:00:00+00:00,924.1207384176781
2025-02-07 17:00:00+00:00,924.1207384176781
2025-02-07 18:00:00+00:00,924.1207384176781
2025-02-07 19:00:00+00:00,924.1207384176781
2025-02-07 20:00:00+00:00,924.1207384176781
2025-02-10 14:00:00+00:00,924.1207384176781
2025-02-10 15:00:00+00:00,924.1207384176781
2025-02-10 16:00:00+00:00,924.1207384176781
2025-02-10 17:00:00+00:00,924.1207384176781
2025-02-10 18:00:00+00:00,924.1207384176781
2025-02-10 19:00:00+00:00,924.1207384176781
2025-02-10 20:00:00+00:00,924.1207384176781
2025-02-11 14:00:00+00:00,924.1207384176781
2025-02-11 15:00:00+00:00,924.1207384176781
2025-02-11 16:00:00+00:00,924.1207384176781
2025-02-11 17:00:00+00:00,924.1207384176781
2025-02-11 18:00:00+00:00,924.1207384176781
2025-02-11 19:00:00+00:00,924.1207384176781
2025-02-11 20:00:00+00:00,924.1207384176781
2025-02-12 14:00:00+00:00,924.1207384176781
2025-02-12 15:00:00+00:00,924.1207384176781
2025-02-12 16:00:00+00:00,924.1207384176781
2025-02-12 17:00:00+00:00,924.1207384176781
2025-02-12 18:00:00+00:00,924.1207384176781
2025-02-12 19:00:00+00:00,924.1207384176781
2025-02-12 20:00:00+00:00,924.1207384176781
2025-02-13 14:00:00+00:00,924.1207384176781
2025-02-13 15:00:00+00:00,924.1207384176781
2025-02-13 16:00:00+00:00,924.1207384176781
2025-02-13 17:00:00+00:00,924.1207384176781
2025-02-13 18:00:00+00:00,924.1207384176781
2025-02-13 19:00:00+00:00,924.1207384176781
2025-02-13 20:00:00+00:00,924.1207384176781
2025-02-14 14:00:00+00:00,924.1207384176781
2025-02-14 15:00:00+00:00,924.1207384176781
2025-02-14 16:00:00+00:00,924.1207384176781
2025-02-14 17:00:00+00:00,924.1207384176781
2025-02-14 18:00:00+00:00,924.1207384176781
2025-02-14 19:00:00+00:00,924.1207384176781
2025-02-14 20:00:00+00:00,924.1207384176781
2025-02-18 14:00:00+00:00,924.1207384176781
2025-02-18 15:00:00+00:00,924.1207384176781
2025-02-18 16:00:00+00:00,924.1207384176781
2025-02-18 17:00:00+00:00,924.1207384176781
2025-02-18 18:00:00+00:00,924.1207384176781
2025-02-18 19:00:00+00:00,924.1207384176781
2025-02-18 20:00:00+00:00,924.1207384176781
2025-02-19 14:00:00+00:00,924.1207384176781
2025-02-19 15:00:00+00:00,924.1207384176781
2025-02-19 16:00:00+00:00,924.1207384176781
2025-02-19 17:00:00+00:00,924.1207384176781
2025-02-19 18:00:00+00:00,924.1207384176781
2025-02-19 19:00:00+00:00,924.1207384176781
2025-02-19 20:00:00+00:00,924.1207384176781
2025-02-20 14:00:00+00:00,924.1207384176781
2025-02-20 15:00:00+00:00,924.1207384176781
2025-02-20 16:00:00+00:00,924.1207384176781
2025-02-20 17:00:00+00:00,924.1207384176781
2025-02-20 18:00:00+00:00,924.1207384176781
2025-02-20 19:00:00+00:00,924.1207384176781
2025-02-20 20:00:00+00:00,924.1207384176781
2025-02-21 14:00:00+00:00,924.1207384176781
2025-02-21 15:00:00+00:00,924.1207384176781
2025-02-21 16:00:00+00:00,924.1207384176781
2025-02-21 17:00:00+00:00,924.1207384176781
2025-02-21 18:00:00+00:00,924.1207384176781
2025-02-21 19:00:00+00:00,924.1207384176781
2025-02-21 20:00:00+00:00,924.1207384176781
2025-02-24 14:00:00+00:00,924.1207384176781
2025-02-24 15:00:00+00:00,924.1207384176781
2025-02-24 16:00:00+00:00,924.1207384176781
2025-02-24 17:00:00+00:00,924.1207384176781
2025-02-24 18:00:00+00:00,924.1207384176781
2025-02-24 19:00:00+00:00,924.1207384176781
2025-02-24 20:00:00+00:00,924.1207384176781
2025-02-25 14:00:00+00:00,924.1207384176781
2025-02-25 15:00:00+00:00,924.1207384176781
2025-02-25 16:00:00+00:00,924.1207384176781
2025-02-25 17:00:00+00:00,924.1207384176781
2025-02-25 18:00:00+00:00,924.1207384176781
2025-02-25 19:00:00+00:00,924.1207384176781
2025-02-25 20:00:00+00:00,924.1207384176781
2025-02-26 14:00:00+00:00,924.1207384176781
2025-02-26 15:00:00+00:00,924.1207384176781
2025-02-26 16:00:00+00:00,924.1207384176781
2025-02-26 17:00:00+00:00,924.1207384176781
2025-02-26 18:00:00+00:00,924.1207384176781
2025-02-26 19:00:00+00:00,924.1207384176781
2025-02-26 20:00:00+00:00,924.1207384176781
2025-02-27 14:00:00+00:00,924.1207384176781
2025-02-27 15:00:00+00:00,924.1207384176781
2025-02-27 16:00:00+00:00,924.1207384176781
2025-02-27 17:00:00+00:00,924.1207384176781
2025-02-27 18:00:00+00:00,924.1207384176781
2025-02-27 19:00:00+00:00,924.1207384176781
2025-02-27 20:00:00+00:00,924.1207384176781
2025-02-28 14:00:00+00:00,924.1207384176781
2025-02-28 15:00:00+00:00,924.1207384176781
2025-02-28 16:00:00+00:00,924.1207384176781
2025-02-28 17:00:00+00:00,924.1207384176781
2025-02-28 18:00:00+00:00,924.1207384176781
2025-02-28 19:00:00+00:00,924.1207384176781
2025-02-28 20:00:00+00:00,924.1207384176781
2025-03-03 14:00:00+00:00,924.1207384176781
2025-03-03 15:00:00+00:00,924.1207384176781
2025-03-03 16:00:00+00:00,924.1207384176781
2025-03-03 17:00:00+00:00,924.1207384176781
2025-03-03 18:00:00+00:00,924.1207384176781
2025-03-03 19:00:00+00:00,924.1207384176781
2025-03-03 20:00:00+00:00,924.1207384176781
2025-03-04 14:00:00+00:00,924.1207384176781
2025-03-04 15:00:00+00:00,924.1207384176781
2025-03-04 16:00:00+00:00,924.1207384176781
2025-03-04 17:00:00+00:00,924.1207384176781
2025-03-04 18:00:00+00:00,924.1207384176781
2025-03-04 19:00:00+00:00,924.1207384176781
2025-03-04 20:00:00+00:00,924.1207384176781
2025-03-05 14:00:00+00:00,924.1207384176781
2025-03-05 15:00:00+00:00,924.1207384176781
2025-03-05 16:00:00+00:00,924.1207384176781
2025-03-05 17:00:00+00:00,924.1207384176781
2025-03-05 18:00:00+00:00,924.1207384176781
2025-03-05 19:00:00+00:00,924.1207384176781
2025-03-05 20:00:00+00:00,924.1207384176781
2025-03-06 14:00:00+00:00,924.1207384176781
2025-03-06 15:00:00+00:00,924.1207384176781
2025-03-06 16:00:00+00:00,924.1207384176781
2025-03-06 17:00:00+00:00,924.1207384176781
2025-03-06 18:00:00+00:00,924.1207384176781
2025-03-06 19:00:00+00:00,924.1207384176781
2025-03-06 20:00:00+00:00,924.1207384176781
2025-03-07 14:00:00+00:00,924.1207384176781
2025-03-07 15:00:00+00:00,924.1207384176781
2025-03-07 16:00:00+00:00,924.1207384176781
2025-03-07 17:00:00+00:00,924.1207384176781
2025-03-07 18:00:00+00:00,924.1207384176781
2025-03-07 19:00:00+00:00,924.1207384176781
2025-03-07 20:00:00+00:00,924.1207384176781
2025-03-10 13:00:00+00:00,924.1207384176781
2025-03-10 14:00:00+00:00,924.1207384176781
2025-03-10 15:00:00+00:00,924.1207384176781
2025-03-10 16:00:00+00:00,924.1207384176781
2025-03-10 17:00:00+00:00,924.1207384176781
2025-03-10 18:00:00+00:00,924.1207384176781
2025-03-10 19:00:00+00:00,924.1207384176781
2025-03-11 13:00:00+00:00,924.1207384176781
2025-03-11 14:00:00+00:00,924.1207384176781
2025-03-11 15:00:00+00:00,924.1207384176781
2025-03-11 16:00:00+00:00,924.1207384176781
2025-03-11 17:00:00+00:00,924.1207384176781
2025-03-11 18:00:00+00:00,924.1207384176781
2025-03-11 19:00:00+00:00,924.1207384176781
2025-03-12 13:00:00+00:00,924.1207384176781
2025-03-12 14:00:00+00:00,924.1207384176781
2025-03-12 15:00:00+00:00,924.1207384176781
2025-03-12 16:00:00+00:00,924.1207384176781
2025-03-12 17:00:00+00:00,924.1207384176781
2025-03-12 18:00:00+00:00,924.1207384176781
2025-03-12 19:00:00+00:00,924.1207384176781
2025-03-13 13:00:00+00:00,924.1207384176781
2025-03-13 14:00:00+00:00,924.1207384176781
2025-03-13 15:00:00+00:00,924.1207384176781
2025-03-13 16:00:00+00:00,924.1207384176781
2025-03-13 17:00:00+00:00,924.1207384176781
2025-03-13 18:00:00+00:00,924.1207384176781
2025-03-13 19:00:00+00:00,924.1207384176781
2025-03-14 13:00:00+00:00,924.1207384176781
2025-03-14 14:00:00+00:00,924.1207384176781
2025-03-14 15:00:00+00:00,924.1207384176781
2025-03-14 16:00:00+00:00,924.1207384176781
2025-03-14 17:00:00+00:00,924.1207384176781
2025-03-14 18:00:00+00:00,924.1207384176781
2025-03-14 19:00:00+00:00,924.1207384176781
2025-03-17 13:00:00+00:00,924.1207384176781
2025-03-17 14:00:00+00:00,924.1207384176781
2025-03-17 15:00:00+00:00,924.1207384176781
2025-03-17 16:00:00+00:00,924.1207384176781
2025-03-17 17:00:00+00:00,924.1207384176781
2025-03-17 18:00:00+00:00,924.1207384176781
2025-03-17 19:00:00+00:00,924.1207384176781
2025-03-18 13:00:00+00:00,924.1207384176781
2025-03-18 14:00:00+00:00,924.1207384176781
2025-03-18 15:00:00+00:00,924.1207384176781
2025-03-18 16:00:00+00:00,924.1207384176781
2025-03-18 17:00:00+00:00,924.1207384176781
2025-03-18 18:00:00+00:00,924.1207384176781
2025-03-18 19:00:00+00:00,924.1207384176781
2025-03-19 13:00:00+00:00,924.1207384176781
2025-03-19 14:00:00+00:00,924.1207384176781
2025-03-19 15:00:00+00:00,924.1207384176781
2025-03-19 16:00:00+00:00,924.1207384176781
2025-03-19 17:00:00+00:00,924.1207384176781
2025-03-19 18:00:00+00:00,924.1207384176781
2025-03-19 19:00:00+00:00,924.1207384176781
2025-03-20 13:00:00+00:00,924.1207384176781
2025-03-20 14:00:00+00:00,924.1207384176781
2025-03-20 15:00:00+00:00,924.1207384176781
2025-03-20 16:00:00+00:00,924.1207384176781
2025-03-20 17:00:00+00:00,924.1207384176781
2025-03-20 18:00:00+00:00,924.1207384176781
2025-03-20 19:00:00+00:00,924.1207384176781
2025-03-21 13:00:00+00:00,924.1207384176781
2025-03-21 14:00:00+00:00,924.1207384176781
2025-03-21 15:00:00+00:00,924.1207384176781
2025-03-21 16:00:00+00:00,924.1207384176781
2025-03-21 17:00:00+00:00,924.1207384176781
2025-03-21 18:00:00+00:00,924.1207384176781
2025-03-21 19:00:00+00:00,924.1207384176781
2025-03-24 13:00:00+00:00,924.1207384176781
2025-03-24 14:00:00+00:00,924.1207384176781
2025-03-24 15:00:00+00:00,924.1207384176781
2025-03-24 16:00:00+00:00,924.1207384176781
2025-03-24 17:00:00+00:00,924.1207384176781
2025-03-24 18:00:00+00:00,924.1207384176781
2025-03-24 19:00:00+00:00,924.1207384176781
2025-03-25 13:00:00+00:00,924.1207384176781
2025-03-25 14:00:00+00:00,924.1207384176781
2025-03-25 15:00:00+00:00,924.1207384176781
2025-03-25 16:00:00+00:00,924.1207384176781
2025-03-25 17:00:00+00:00,924.1207384176781
2025-03-25 18:00:00+00:00,924.1207384176781
2025-03-25 19:00:00+00:00,924.1207384176781
2025-03-26 13:00:00+00:00,924.1207384176781
2025-03-26 14:00:00+00:00,924.1207384176781
2025-03-26 15:00:00+00:00,924.1207384176781
2025-03-26 16:00:00+00:00,924.1207384176781
2025-03-26 17:00:00+00:00,924.1207384176781
2025-03-26 18:00:00+00:00,924.1207384176781
2025-03-26 19:00:00+00:00,924.1207384176781
2025-03-27 13:00:00+00:00,924.1207384176781
2025-03-27 14:00:00+00:00,924.1207384176781
2025-03-27 15:00:00+00:00,924.1207384176781
2025-03-27 16:00:00+00:00,924.1207384176781
2025-03-27 17:00:00+00:00,924.1207384176781
2025-03-27 18:00:00+00:00,924.1207384176781
2025-03-27 19:00:00+00:00,924.1207384176781
2025-03-28 13:00:00+00:00,924.1207384176781
2025-03-28 14:00:00+00:00,924.1207384176781
2025-03-28 15:00:00+00:00,924.1207384176781
2025-03-28 16:00:00+00:00,924.1207384176781
2025-03-28 17:00:00+00:00,924.1207384176781
2025-03-28 18:00:00+00:00,924.1207384176781
2025-03-28 19:00:00+00:00,924.1207384176781
2025-03-31 13:00:00+00:00,924.1207384176781
2025-03-31 14:00:00+00:00,924.1207384176781
2025-03-31 15:00:00+00:00,924.1207384176781
2025-03-31 16:00:00+00:00,924.1207384176781
2025-03-31 17:00:00+00:00,924.1207384176781
2025-03-31 18:00:00+00:00,924.1207384176781
2025-03-31 19:00:00+00:00,924.1207384176781
2025-04-01 13:00:00+00:00,924.1207384176781
2025-04-01 14:00:00+00:00,924.1207384176781
2025-04-01 15:00:00+00:00,924.1207384176781
2025-04-01 16:00:00+00:00,924.1207384176781
2025-04-01 17:00:00+00:00,924.1207384176781
2025-04-01 18:00:00+00:00,924.1207384176781
2025-04-01 19:00:00+00:00,924.1207384176781
2025-04-02 13:00:00+00:00,924.1207384176781
2025-04-02 14:00:00+00:00,924.1207384176781
2025-04-02 15:00:00+00:00,924.1207384176781
2025-04-02 16:00:00+00:00,924.1207384176781
2025-04-02 17:00:00+00:00,924.1207384176781
2025-04-02 18:00:00+00:00,924.1207384176781
2025-04-02 19:00:00+00:00,924.1207384176781
2025-04-03 13:00:00+00:00,924.1207384176781
2025-04-03 14:00:00+00:00,924.1207384176781
2025-04-03 15:00:00+00:00,924.1207384176781
2025-04-03 16:00:00+00:00,924.1207384176781
2025-04-03 17:00:00+00:00,924.1207384176781
2025-04-03 18:00:00+00:00,924.1207384176781
2025-04-03 19:00:00+00:00,924.1207384176781
2025-04-04 13:00:00+00:00,511.22598292568034
2025-04-04 14:00:00+00:00,483.7725959795067
2025-04-04 15:00:00+00:00,438.17274189953804
2025-04-04 16:00:00+00:00,452.4681680923596
2025-04-04 17:00:00+00:00,390.11089366039585
2025-04-04 18:00:00+00:00,357.88137622875786
2025-04-04 19:00:00+00:00,384.6588506062359
2025-04-07 13:00:00+00:00,284.70305811783084
2025-04-07 14:00:00+00:00,200.5555001031799
2025-04-07 15:00:00+00:00,295.1548330137781
2025-04-07 16:00:00+00:00,350.6721002494353
2025-04-07 17:00:00+00:00,351.56563699540834
2025-04-07 18:00:00+00:00,284.4006792794608
2025-04-07 19:00:00+00:00,350.84121050028534
2025-04-08 13:00:00+00:00,383.8163075403652
2025-04-08 14:00:00+00:00,249.60448476170944
2025-04-08 15:00:00+00:00,311.1656150351912
2025-04-08 16:00:00+00:00,154.58017348343122
2025-04-08 17:00:00+00:00,203.9444330346833
2025-04-08 18:00:00+00:00,172.0546594837015
2025-04-08 19:00:00+00:00,164.2017438081676
2025-04-09 13:00:00+00:00,292.96496270382977
2025-04-09 14:00:00+00:00,295.70450665748854
2025-04-09 15:00:00+00:00,296.4070573812077
2025-04-09 16:00:00+00:00,618.215617391714
2025-04-09 17:00:00+00:00,729.3971509784319
2025-04-09 18:00:00+00:00,675.4207149128825
2025-04-09 19:00:00+00:00,654.1181550758383
2025-04-10 13:00:00+00:00,210.7848022562373
2025-04-10 14:00:00+00:00,165.94709776239822
2025-04-10 15:00:00+00:00,47.65516146494386
2025-04-10 16:00:00+00:00,57.45200696678355
2025-04-10 17:00:00+00:00,101.89975359026931
2025-04-10 18:00:00+00:00,33.80891322123031
2025-04-10 19:00:00+00:00,122.27088272524358
2025-04-11 13:00:00+00:00,91.54676612195708
2025-04-11 14:00:00+00:00,139.25567726527663
2025-04-11 15:00:00+00:00,217.11988856237758
2025-04-11 16:00:00+00:00,281.1684224891849
2025-04-11 17:00:00+00:00,335.22895113976074
2025-04-11 18:00:00+00:00,410.2538516096547
2025-04-11 19:00:00+00:00,361.3789624795478
2025-04-14 13:00:00+00:00,321.46590288425807
2025-04-14 14:00:00+00:00,247.50282363504732
2025-04-14 15:00:00+00:00,209.8615941394168
2025-04-14 16:00:00+00:00,213.9938608054429
2025-04-14 17:00:00+00:00,271.31985059710024
2025-04-14 18:00:00+00:00,259.797575593472
2025-04-14 19:00:00+00:00,283.8020649070832
2025-04-15 13:00:00+00:00,291.18715478778995
2025-04-15 14:00:00+00:00,302.0119674633248
2025-04-15 15:00:00+00:00,281.225054956447
2025-04-15 16:00:00+00:00,268.15653437508007
2025-04-15 17:00:00+00:00,261.53128352277
2025-04-15 18:00:00+00:00,302.96312857803196
2025-04-15 19:00:00+00:00,278.2655994424873
2025-04-16 13:00:00+00:00,352.09187712422164
2025-04-16 14:00:00+00:00,363.09492520904126
2025-04-16 15:00:00+00:00,356.84299161532334
2025-04-16 16:00:00+00:00,385.82968652184013
2025-04-16 17:00:00+00:00,317.3946243709828
2025-04-16 18:00:00+00:00,279.58930238604876
2025-04-16 19:00:00+00:00,304.1088762584176
2025-04-17 13:00:00+00:00,422.03942080121544
2025-04-17 14:00:00+00:00,450.269047557532
2025-04-17 15:00:00+00:00,527.0228142968718
2025-04-17 16:00:00+00:00,473.9318756587539
2025-04-17 17:00:00+00:00,512.9237823709715
2025-04-17 18:00:00+00:00,481.18337723252694
2025-04-17 19:00:00+00:00,418.2892030524292
2025-04-21 13:00:00+00:00,314.87920676043467
2025-04-21 14:00:00+00:00,315.23484292485307
2025-04-21 15:00:00+00:00,298.180524962791
2025-04-21 16:00:00+00:00,257.4910618572787
2025-04-21 17:00:00+00:00,266.7153683703602
2025-04-21 18:00:00+00:00,284.8898583933305
2025-04-21 19:00:00+00:00,345.0688355783739
2025-04-22 13:00:00+00:00,443.8001029043458
2025-04-22 14:00:00+00:00,465.16224835150655
2025-04-22 15:00:00+00:00,529.0579292454357
2025-04-22 16:00:00+00:00,421.3062161144449
2025-04-22 17:00:00+00:00,459.254080829281
2025-04-22 18:00:00+00:00,464.71972122733416
2025-04-22 19:00:00+00:00,460.3781126249393
2025-04-23 13:00:00+00:00,432.2632386553545
2025-04-23 14:00:00+00:00,421.2398135540618
2025-04-23 15:00:00+00:00,443.53772523073525
2025-04-23 16:00:00+00:00,491.20343125800997
2025-04-23 17:00:00+00:00,483.8409498588476
2025-04-23 18:00:00+00:00,443.62897833021685
2025-04-23 19:00:00+00:00,489.7775833953882
2025-04-24 13:00:00+00:00,559.5278333028903
2025-04-24 14:00:00+00:00,552.2760120097049
2025-04-24 15:00:00+00:00,571.0407673434601
2025-04-24 16:00:00+00:00,592.5654731685989
2025-04-24 17:00:00+00:00,591.8768558528295
2025-04-24 18:00:00+00:00,566.9793257439756
2025-04-24 19:00:00+00:00,605.976140807096
2025-04-25 13:00:00+00:00,570.6234720182769
2025-04-25 14:00:00+00:00,581.4780096330418
2025-04-25 15:00:00+00:00,596.5694565246769
2025-04-25 16:00:00+00:00,555.6658967259818
2025-04-25 17:00:00+00:00,552.40921377655
2025-04-25 18:00:00+00:00,561.811758845214
2025-04-25 19:00:00+00:00,577.6438063603105
2025-04-28 13:00:00+00:00,614.5698510192232
2025-04-28 14:00:00+00:00,583.8474062019499
2025-04-28 15:00:00+00:00,624.5507989020084
2025-04-28 16:00:00+00:00,608.1496857224462
2025-04-28 17:00:00+00:00,650.0995623163511
2025-04-28 18:00:00+00:00,655.1534087755742
2025-04-28 19:00:00+00:00,650.4740088015369
2025-04-29 13:00:00+00:00,524.9926279111992
2025-04-29 14:00:00+00:00,615.8365916701125
2025-04-29 15:00:00+00:00,609.4467543243828
2025-04-29 16:00:00+00:00,615.0947724917717
2025-04-29 17:00:00+00:00,633.0759216391752
2025-04-29 18:00:00+00:00,631.0692493830943
2025-04-29 19:00:00+00:00,568.1879460754002
2025-04-30 13:00:00+00:00,439.16130329348516
2025-04-30 14:00:00+00:00,441.14593678164067
2025-04-30 15:00:00+00:00,330.8495495550752
2025-04-30 16:00:00+00:00,346.4549152222357
2025-04-30 17:00:00+00:00,362.48748992541726
2025-04-30 18:00:00+00:00,379.14205896922573
2025-04-30 19:00:00+00:00,417.7741184936716
2025-05-01 13:00:00+00:00,557.2653441662906
2025-05-01 14:00:00+00:00,570.2405973248974
2025-05-01 15:00:00+00:00,475.13116513311263
2025-05-01 16:00:00+00:00,482.38265660089075
2025-05-01 17:00:00+00:00,539.8022460659613
2025-05-01 18:00:00+00:00,524.1781984726822
2025-05-01 19:00:00+00:00,466.4652413068907
2025-05-02 13:00:00+00:00,353.0162347013657
2025-05-02 14:00:00+00:00,347.55534663488174
2025-05-02 15:00:00+00:00,363.8985056203065
2025-05-02 16:00:00+00:00,283.9938743776576
2025-05-02 17:00:00+00:00,392.9373638792405
2025-05-02 18:00:00+00:00,359.79673303065533
2025-05-02 19:00:00+00:00,404.6101805612799
2025-05-05 13:00:00+00:00,299.3262726431768
2025-05-05 14:00:00+00:00,298.9438939005308
2025-05-05 15:00:00+00:00,314.6204144596443
2025-05-05 16:00:00+00:00,295.8909684114789
2025-05-05 17:00:00+00:00,318.0392209005604
2025-05-05 18:00:00+00:00,325.67235840084567
2025-05-05 19:00:00+00:00,309.604447961436
2025-05-06 13:00:00+00:00,362.22044682327646
2025-05-06 14:00:00+00:00,354.2970686468835
2025-05-06 15:00:00+00:00,336.50937987272226
2025-05-06 16:00:00+00:00,322.75224197558595
2025-05-06 17:00:00+00:00,330.8662801622277
2025-05-06 18:00:00+00:00,318.74882139091926
2025-05-06 19:00:00+00:00,304.54290219075483
2025-05-07 13:00:00+00:00,239.59594833153054
2025-05-07 14:00:00+00:00,224.51826987907185
2025-05-07 15:00:00+00:00,238.6181176047474
2025-05-07 16:00:00+00:00,258.4714922008913
2025-05-07 17:00:00+00:00,211.97014895944162
2025-05-07 18:00:00+00:00,226.82501656126658
2025-05-07 19:00:00+00:00,258.5477984957381
2025-05-08 13:00:00+00:00,346.9272215211289
2025-05-08 14:00:00+00:00,397.5888543177778
2025-05-08 15:00:00+00:00,424.36051764154473
2025-05-08 16:00:00+00:00,372.2654508948648
2025-05-08 17:00:00+00:00,344.2916946049415
2025-05-08 18:00:00+00:00,349.25908429907304
2025-05-08 19:00:00+00:00,282.7655802186508
2025-05-09 13:00:00+00:00,289.5068062799145
2025-05-09 14:00:00+00:00,293.109562841904
2025-05-09 15:00:00+00:00,279.6365185031056
2025-05-09 16:00:00+00:00,289.97165611403614
2025-05-09 17:00:00+00:00,302.8137075057983
2025-05-09 18:00:00+00:00,337.4118523691995
2025-05-09 19:00:00+00:00,356.1551247642309
2025-05-12 13:00:00+00:00,591.8839071050448
2025-05-12 14:00:00+00:00,498.18269957190995
2025-05-12 15:00:00+00:00,509.1405478889626
2025-05-12 16:00:00+00:00,526.9194584714762
2025-05-12 17:00:00+00:00,503.2129254900742
2025-05-12 18:00:00+00:00,514.4506109846297
2025-05-12 19:00:00+00:00,498.11573424012056
2025-05-13 13:00:00+00:00,591.0802071771375
2025-05-13 14:00:00+00:00,664.590578567896
2025-05-13 15:00:00+00:00,696.0863953620267
2025-05-13 16:00:00+00:00,731.2616048384056
2025-05-13 17:00:00+00:00,721.2586112454841
2025-05-13 18:00:00+00:00,718.7434152237405
2025-05-13 19:00:00+00:00,667.3893053765679
2025-05-14 13:00:00+00:00,577.8606954996269
2025-05-14 14:00:00+00:00,628.3619962370758
2025-05-14 15:00:00+00:00,627.4021562353711
2025-05-14 16:00:00+00:00,603.6635807973047
2025-05-14 17:00:00+00:00,576.665838637426
2025-05-14 18:00:00+00:00,618.5330981725768
2025-05-14 19:00:00+00:00,612.4140868666984
2025-05-15 13:00:00+00:00,519.3500155849688
2025-05-15 14:00:00+00:00,549.0192536731244
2025-05-15 15:00:00+00:00,613.7354179277111
2025-05-15 16:00:00+00:00,605.8003245561499
2025-05-15 17:00:00+00:00,609.5004435712139
2025-05-15 18:00:00+00:00,636.7617190819394
2025-05-15 19:00:00+00:00,652.2293572284144
2025-05-16 13:00:00+00:00,623.1204531460796
2025-05-16 14:00:00+00:00,624.39105353172
2025-05-16 15:00:00+00:00,647.3686382071857
2025-05-16 16:00:00+00:00,667.3353102757764
2025-05-16 17:00:00+00:00,646.6838806261685
2025-05-16 18:00:00+00:00,638.7390195110518
2025-05-16 19:00:00+00:00,641.2188029995261
2025-05-19 13:00:00+00:00,546.5847196317154
2025-05-19 14:00:00+00:00,536.462287741171
2025-05-19 15:00:00+00:00,556.9379399703475
2025-05-19 16:00:00+00:00,580.1871160094076
2025-05-19 17:00:00+00:00,547.3047236206785
2025-05-19 18:00:00+00:00,525.3268139863499
2025-05-19 19:00:00+00:00,559.4134042003404
2025-05-20 13:00:00+00:00,530.2372049608058
2025-05-20 14:00:00+00:00,531.7122288259183
2025-05-20 15:00:00+00:00,516.6084637272953
2025-05-20 16:00:00+00:00,504.18023052302084
2025-05-20 17:00:00+00:00,483.69988641467603
2025-05-20 18:00:00+00:00,481.2694450540195
2025-05-20 19:00:00+00:00,473.7814813575186
2025-05-21 13:00:00+00:00,434.6785948199124
2025-05-21 14:00:00+00:00,428.8259870477261
2025-05-21 15:00:00+00:00,441.179422097026
2025-05-21 16:00:00+00:00,442.2283724453069
2025-05-21 17:00:00+00:00,478.3723662403642
2025-05-21 18:00:00+00:00,458.65202728573854
2025-05-21 19:00:00+00:00,419.8867659944511
2025-05-22 13:00:00+00:00,325.5593178458471
2025-05-22 14:00:00+00:00,314.94787296675935
2025-05-22 15:00:00+00:00,374.8112706156221
2025-05-22 16:00:00+00:00,383.0983456085436
2025-05-22 17:00:00+00:00,398.71288611343704
2025-05-22 18:00:00+00:00,413.87382616305945
2025-05-22 19:00:00+00:00,377.00138001280044
2025-05-23 13:00:00+00:00,315.2273381571787
2025-05-23 14:00:00+00:00,322.5452719217679
2025-05-23 15:00:00+00:00,300.96753035938406
2025-05-23 16:00:00+00:00,332.32555675518284
2025-05-23 17:00:00+00:00,340.59799969145
2025-05-23 18:00:00+00:00,325.14013802237787
2025-05-23 19:00:00+00:00,325.00693625553214
2025-05-27 13:00:00+00:00,341.27042516208945
2025-05-27 14:00:00+00:00,370.8952395793243
2025-05-27 15:00:00+00:00,387.6479075997509
2025-05-27 16:00:00+00:00,396.1791742909027
2025-05-27 17:00:00+00:00,390.9671333748123
2025-05-27 18:00:00+00:00,381.2443067848025
2025-05-27 19:00:00+00:00,389.2605557378717
2025-05-28 13:00:00+00:00,374.5880659053842
2025-05-28 14:00:00+00:00,355.35157461700595
2025-05-28 15:00:00+00:00,384.7459103291985
2025-05-28 16:00:00+00:00,389.96670309843756
2025-05-28 17:00:00+00:00,361.4039667611438
2025-05-28 18:00:00+00:00,339.38638821270933
2025-05-28 19:00:00+00:00,351.58826939445754
2025-05-29 13:00:00+00:00,324.30111870288545
2025-05-29 14:00:00+00:00,313.1690817157233
2025-05-29 15:00:00+00:00,302.7178027705095
2025-05-29 16:00:00+00:00,316.9906873024641
2025-05-29 17:00:00+00:00,312.6689131571239
2025-05-29 18:00:00+00:00,306.81907940942733
2025-05-29 19:00:00+00:00,294.73647039997724
2025-05-30 13:00:00+00:00,253.38093163956526
2025-05-30 14:00:00+00:00,247.39126236577965
2025-05-30 15:00:00+00:00,188.74985187147715
2025-05-30 16:00:00+00:00,241.21479281649744
2025-05-30 17:00:00+00:00,236.3359546405606
2025-05-30 18:00:00+00:00,261.1529220737298
2025-05-30 19:00:00+00:00,226.8977175596229
2025-06-02 13:00:00+00:00,377.7166316701916
2025-06-02 14:00:00+00:00,386.2302751573705
2025-06-02 15:00:00+00:00,409.4432733394171
2025-06-02 16:00:00+00:00,401.6626040182534
2025-06-02 17:00:00+00:00,369.8203837861568
2025-06-02 18:00:00+00:00,388.1634881092445
2025-06-02 19:00:00+00:00,404.4755902468827
2025-06-03 13:00:00+00:00,427.3057137355495
2025-06-03 14:00:00+00:00,488.4706024925098
2025-06-03 15:00:00+00:00,505.6228758134727
2025-06-03 16:00:00+00:00,503.89247311236534
2025-06-03 17:00:00+00:00,474.3355083588904
2025-06-03 18:00:00+00:00,468.9680538404946
2025-06-03 19:00:00+00:00,456.99716365916504
2025-06-04 13:00:00+00:00,532.5192925378443
2025-06-04 14:00:00+00:00,438.5306944830278
2025-06-04 15:00:00+00:00,362.43647984672657
2025-06-04 16:00:00+00:00,364.62490735189607
2025-06-04 17:00:00+00:00,353.3646801964712
2025-06-04 18:00:00+00:00,372.4273918624345
2025-06-04 19:00:00+00:00,341.96240626187745
2025-06-05 13:00:00+00:00,343.1525310045016
2025-06-05 14:00:00+00:00,358.3187659451128
2025-06-05 15:00:00+00:00,376.1530034612888
2025-06-05 16:00:00+00:00,393.7211066871558
2025-06-05 17:00:00+00:00,360.9587153674611
2025-06-05 18:00:00+00:00,353.2404227466
2025-06-05 19:00:00+00:00,365.49590243700226
2025-06-06 13:00:00+00:00,541.4875952024379
2025-06-06 14:00:00+00:00,535.9373662686216
2025-06-06 15:00:00+00:00,549.3700796172523
2025-06-06 16:00:00+00:00,539.2035563064377
2025-06-06 17:00:00+00:00,537.1769766271544
2025-06-06 18:00:00+00:00,547.1528399277167
2025-06-06 19:00:00+00:00,551.6100270929829
2025-06-09 13:00:00+00:00,515.1268571761226
2025-06-09 14:00:00+00:00,538.758138787429
2025-06-09 15:00:00+00:00,554.506047184495
2025-06-09 16:00:00+00:00,593.3684530398438
2025-06-09 17:00:00+00:00,598.7547382031378
2025-06-09 18:00:00+00:00,573.626217093864
2025-06-09 19:00:00+00:00,545.9033926553909
2025-06-10 13:00:00+00:00,806.9051233336689
2025-06-10 14:00:00+00:00,806.9051233336689
2025-06-10 15:00:00+00:00,806.9051233336689
2025-06-10 16:00:00+00:00,806.9051233336689
2025-06-10 17:00:00+00:00,806.9051233336689
2025-06-10 18:00:00+00:00,806.9051233336689
2025-06-10 19:00:00+00:00,806.9051233336689
2025-06-11 13:00:00+00:00,806.9051233336689
2025-06-11 14:00:00+00:00,806.9051233336689
2025-06-11 15:00:00+00:00,806.9051233336689
2025-06-11 16:00:00+00:00,806.9051233336689
2025-06-11 17:00:00+00:00,806.9051233336689
2025-06-11 18:00:00+00:00,806.9051233336689
2025-06-11 19:00:00+00:00,806.9051233336689
2025-06-12 13:00:00+00:00,806.9051233336689
2025-06-12 14:00:00+00:00,806.9051233336689
2025-06-12 15:00:00+00:00,806.9051233336689
2025-06-12 16:00:00+00:00,806.9051233336689
2025-06-12 17:00:00+00:00,806.9051233336689
2025-06-12 18:00:00+00:00,806.9051233336689
2025-06-12 19:00:00+00:00,806.9051233336689
2025-06-13 13:00:00+00:00,806.9051233336689
2025-06-13 14:00:00+00:00,806.9051233336689
2025-06-13 15:00:00+00:00,806.9051233336689
2025-06-13 16:00:00+00:00,806.9051233336689
2025-06-13 17:00:00+00:00,806.9051233336689
2025-06-13 18:00:00+00:00,806.9051233336689
2025-06-13 19:00:00+00:00,806.9051233336689
2025-06-16 13:00:00+00:00,806.9051233336689
2025-06-16 14:00:00+00:00,806.9051233336689
2025-06-16 15:00:00+00:00,806.9051233336689
2025-06-16 16:00:00+00:00,806.9051233336689
2025-06-16 17:00:00+00:00,806.9051233336689
2025-06-16 18:00:00+00:00,806.9051233336689
2025-06-16 19:00:00+00:00,806.9051233336689
2025-06-17 13:00:00+00:00,806.9051233336689
2025-06-17 14:00:00+00:00,806.9051233336689
2025-06-17 15:00:00+00:00,806.9051233336689
2025-06-17 16:00:00+00:00,806.9051233336689
2025-06-17 17:00:00+00:00,806.9051233336689
2025-06-17 18:00:00+00:00,806.9051233336689
2025-06-17 19:00:00+00:00,806.9051233336689
2025-06-18 13:00:00+00:00,806.9051233336689
2025-06-18 14:00:00+00:00,806.9051233336689
2025-06-18 15:00:00+00:00,806.9051233336689
2025-06-18 16:00:00+00:00,806.9051233336689
2025-06-18 17:00:00+00:00,806.9051233336689
2025-06-18 18:00:00+00:00,806.9051233336689
2025-06-18 19:00:00+00:00,806.9051233336689
2025-06-20 13:00:00+00:00,806.9051233336689
2025-06-20 14:00:00+00:00,806.9051233336689
2025-06-20 15:00:00+00:00,806.9051233336689
2025-06-20 16:00:00+00:00,806.9051233336689
2025-06-20 17:00:00+00:00,806.9051233336689
2025-06-20 18:00:00+00:00,806.9051233336689
2025-06-20 19:00:00+00:00,806.9051233336689
2025-06-23 13:00:00+00:00,806.9051233336689
2025-06-23 14:00:00+00:00,806.9051233336689
2025-06-23 15:00:00+00:00,806.9051233336689
2025-06-23 16:00:00+00:00,806.9051233336689
2025-06-23 17:00:00+00:00,806.9051233336689
2025-06-23 18:00:00+00:00,806.9051233336689
2025-06-23 19:00:00+00:00,806.9051233336689
2025-06-24 13:00:00+00:00,806.9051233336689
2025-06-24 14:00:00+00:00,806.9051233336689
2025-06-24 15:00:00+00:00,806.9051233336689
2025-06-24 16:00:00+00:00,806.9051233336689
2025-06-24 17:00:00+00:00,806.9051233336689
2025-06-24 18:00:00+00:00,806.9051233336689
2025-06-24 19:00:00+00:00,806.9051233336689
2025-06-25 13:00:00+00:00,806.9051233336689
2025-06-25 14:00:00+00:00,806.9051233336689
2025-06-25 15:00:00+00:00,806.9051233336689
2025-06-25 16:00:00+00:00,806.9051233336689
2025-06-25 17:00:00+00:00,806.9051233336689
2025-06-25 18:00:00+00:00,806.9051233336689
2025-06-25 19:00:00+00:00,806.9051233336689
2025-06-26 13:00:00+00:00,806.9051233336689
2025-06-26 14:00:00+00:00,806.9051233336689
2025-06-26 15:00:00+00:00,806.9051233336689
2025-06-26 16:00:00+00:00,806.9051233336689
2025-06-26 17:00:00+00:00,806.9051233336689
2025-06-26 18:00:00+00:00,806.9051233336689
2025-06-26 19:00:00+00:00,806.9051233336689
2025-06-27 13:00:00+00:00,806.9051233336689
2025-06-27 14:00:00+00:00,806.9051233336689
2025-06-27 15:00:00+00:00,806.9051233336689
2025-06-27 16:00:00+00:00,806.9051233336689
2025-06-27 17:00:00+00:00,806.9051233336689
2025-06-27 18:00:00+00:00,806.9051233336689
2025-06-27 19:00:00+00:00,806.9051233336689
2025-06-30 13:00:00+00:00,806.9051233336689
2025-06-30 14:00:00+00:00,806.9051233336689
2025-06-30 15:00:00+00:00,806.9051233336689
2025-06-30 16:00:00+00:00,806.9051233336689
2025-06-30 17:00:00+00:00,806.9051233336689
2025-06-30 18:00:00+00:00,806.9051233336689
2025-06-30 19:00:00+00:00,806.9051233336689
2025-07-01 13:00:00+00:00,806.9051233336689
2025-07-01 14:00:00+00:00,806.9051233336689
2025-07-01 15:00:00+00:00,806.9051233336689
2025-07-01 16:00:00+00:00,806.9051233336689
2025-07-01 17:00:00+00:00,806.9051233336689
2025-07-01 18:00:00+00:00,806.9051233336689
2025-07-01 19:00:00+00:00,806.9051233336689
2025-07-02 13:00:00+00:00,806.9051233336689
2025-07-02 14:00:00+00:00,806.9051233336689
2025-07-02 15:00:00+00:00,806.9051233336689
2025-07-02 16:00:00+00:00,806.9051233336689
2025-07-02 17:00:00+00:00,806.9051233336689
2025-07-02 18:00:00+00:00,806.9051233336689
2025-07-02 19:00:00+00:00,806.9051233336689
2025-07-03 13:00:00+00:00,806.9051233336689
2025-07-03 14:00:00+00:00,806.9051233336689
2025-07-03 15:00:00+00:00,806.9051233336689
2025-07-07 13:00:00+00:00,806.9051233336689
2025-07-07 14:00:00+00:00,806.9051233336689
2025-07-07 15:00:00+00:00,806.9051233336689
2025-07-07 16:00:00+00:00,806.9051233336689
2025-07-07 17:00:00+00:00,806.9051233336689
2025-07-07 18:00:00+00:00,806.9051233336689
2025-07-07 19:00:00+00:00,806.9051233336689
2025-07-08 13:00:00+00:00,806.9051233336689
2025-07-08 14:00:00+00:00,806.9051233336689
2025-07-08 15:00:00+00:00,806.9051233336689
2025-07-08 16:00:00+00:00,806.9051233336689
2025-07-08 17:00:00+00:00,806.9051233336689
2025-07-08 18:00:00+00:00,806.9051233336689
2025-07-08 19:00:00+00:00,806.9051233336689
2025-07-09 13:00:00+00:00,806.9051233336689
2025-07-09 14:00:00+00:00,806.9051233336689
2025-07-09 15:00:00+00:00,806.9051233336689
2025-07-09 16:00:00+00:00,806.9051233336689
2025-07-09 17:00:00+00:00,806.9051233336689
2025-07-09 18:00:00+00:00,806.9051233336689
2025-07-09 19:00:00+00:00,806.9051233336689
2025-07-10 13:00:00+00:00,806.9051233336689
2025-07-10 14:00:00+00:00,806.9051233336689
2025-07-10 15:00:00+00:00,806.9051233336689
2025-07-10 16:00:00+00:00,806.9051233336689
2025-07-10 17:00:00+00:00,806.9051233336689
2025-07-10 18:00:00+00:00,806.9051233336689
2025-07-10 19:00:00+00:00,806.9051233336689
2025-07-11 13:00:00+00:00,806.9051233336689
2025-07-11 14:00:00+00:00,806.9051233336689
2025-07-11 15:00:00+00:00,806.9051233336689
2025-07-11 16:00:00+00:00,806.9051233336689
2025-07-11 17:00:00+00:00,806.9051233336689
2025-07-11 18:00:00+00:00,806.9051233336689
2025-07-11 19:00:00+00:00,806.9051233336689
2025-07-14 13:00:00+00:00,806.9051233336689
2025-07-14 14:00:00+00:00,806.9051233336689
2025-07-14 15:00:00+00:00,806.9051233336689
2025-07-14 16:00:00+00:00,806.9051233336689
2025-07-14 17:00:00+00:00,806.9051233336689
2025-07-14 18:00:00+00:00,806.9051233336689
2025-07-14 19:00:00+00:00,806.9051233336689
2025-07-15 13:00:00+00:00,806.9051233336689
2025-07-15 14:00:00+00:00,806.9051233336689
2025-07-15 15:00:00+00:00,806.9051233336689
2025-07-15 16:00:00+00:00,806.9051233336689
2025-07-15 17:00:00+00:00,806.9051233336689
2025-07-15 18:00:00+00:00,806.9051233336689
2025-07-15 19:00:00+00:00,806.9051233336689
2025-07-16 13:00:00+00:00,806.9051233336689
2025-07-16 14:00:00+00:00,806.9051233336689
2025-07-16 15:00:00+00:00,806.9051233336689
2025-07-16 16:00:00+00:00,806.9051233336689
2025-07-16 17:00:00+00:00,806.9051233336689
2025-07-16 18:00:00+00:00,806.9051233336689
2025-07-16 19:00:00+00:00,806.9051233336689
2025-07-17 13:00:00+00:00,806.9051233336689
2025-07-17 14:00:00+00:00,806.9051233336689
2025-07-17 15:00:00+00:00,806.9051233336689
2025-07-17 16:00:00+00:00,806.9051233336689
2025-07-17 17:00:00+00:00,806.9051233336689
2025-07-17 18:00:00+00:00,806.9051233336689
2025-07-17 19:00:00+00:00,806.9051233336689
2025-07-18 13:00:00+00:00,806.9051233336689
2025-07-18 14:00:00+00:00,806.9051233336689
2025-07-18 15:00:00+00:00,806.9051233336689
2025-07-18 16:00:00+00:00,806.9051233336689
2025-07-18 17:00:00+00:00,806.9051233336689
2025-07-18 18:00:00+00:00,806.9051233336689
2025-07-18 19:00:00+00:00,806.9051233336689
2025-07-21 13:00:00+00:00,806.9051233336689
2025-07-21 14:00:00+00:00,806.9051233336689
2025-07-21 15:00:00+00:00,806.9051233336689
2025-07-21 16:00:00+00:00,806.9051233336689
2025-07-21 17:00:00+00:00,806.9051233336689
2025-07-21 18:00:00+00:00,806.9051233336689
2025-07-21 19:00:00+00:00,806.9051233336689
2025-07-22 13:00:00+00:00,806.9051233336689
2025-07-22 14:00:00+00:00,806.9051233336689
2025-07-22 15:00:00+00:00,806.9051233336689
2025-07-22 16:00:00+00:00,806.9051233336689
2025-07-22 17:00:00+00:00,806.9051233336689
2025-07-22 18:00:00+00:00,806.9051233336689
2025-07-22 19:00:00+00:00,806.9051233336689
2025-07-23 13:00:00+00:00,806.9051233336689
2025-07-23 14:00:00+00:00,806.9051233336689
2025-07-23 15:00:00+00:00,806.9051233336689
2025-07-23 16:00:00+00:00,806.9051233336689
2025-07-23 17:00:00+00:00,806.9051233336689
2025-07-23 18:00:00+00:00,806.9051233336689
2025-07-23 19:00:00+00:00,806.9051233336689
2025-07-24 13:00:00+00:00,806.9051233336689
2025-07-24 14:00:00+00:00,806.9051233336689
2025-07-24 15:00:00+00:00,806.9051233336689
2025-07-24 16:00:00+00:00,806.9051233336689
2025-07-24 17:00:00+00:00,806.9051233336689
2025-07-24 18:00:00+00:00,806.9051233336689
2025-07-24 19:00:00+00:00,806.9051233336689
2025-07-25 13:00:00+00:00,806.9051233336689
2025-07-25 14:00:00+00:00,806.9051233336689
2025-07-25 15:00:00+00:00,806.9051233336689
2025-07-25 16:00:00+00:00,806.9051233336689
2025-07-25 17:00:00+00:00,806.9051233336689
2025-07-25 18:00:00+00:00,806.9051233336689
2025-07-25 19:00:00+00:00,806.9051233336689
2025-07-28 13:00:00+00:00,806.9051233336689
2025-07-28 14:00:00+00:00,806.9051233336689
2025-07-28 15:00:00+00:00,806.9051233336689
2025-07-28 16:00:00+00:00,806.9051233336689
2025-07-28 17:00:00+00:00,806.9051233336689
2025-07-28 18:00:00+00:00,806.9051233336689
2025-07-28 19:00:00+00:00,806.9051233336689
2025-07-29 13:00:00+00:00,806.9051233336689
2025-07-29 14:00:00+00:00,806.9051233336689
2025-07-29 15:00:00+00:00,806.9051233336689
2025-07-29 16:00:00+00:00,806.9051233336689
2025-07-29 17:00:00+00:00,806.9051233336689
2025-07-29 18:00:00+00:00,806.9051233336689
2025-07-29 19:00:00+00:00,806.9051233336689
2025-07-30 13:00:00+00:00,806.9051233336689
2025-07-30 14:00:00+00:00,806.9051233336689
2025-07-30 15:00:00+00:00,806.9051233336689
2025-07-30 16:00:00+00:00,806.9051233336689
2025-07-30 17:00:00+00:00,806.9051233336689
2025-07-30 18:00:00+00:00,806.9051233336689
2025-07-30 19:00:00+00:00,806.9051233336689
2025-07-31 13:00:00+00:00,806.9051233336689
2025-07-31 14:00:00+00:00,806.9051233336689
2025-07-31 15:00:00+00:00,806.9051233336689
2025-07-31 16:00:00+00:00,806.9051233336689
2025-07-31 17:00:00+00:00,806.9051233336689
2025-07-31 18:00:00+00:00,806.9051233336689
2025-07-31 19:00:00+00:00,806.9051233336689
2025-08-01 13:00:00+00:00,806.9051233336689
2025-08-01 14:00:00+00:00,806.9051233336689
2025-08-01 15:00:00+00:00,806.9051233336689
2025-08-01 16:00:00+00:00,806.9051233336689
2025-08-01 17:00:00+00:00,806.9051233336689
2025-08-01 18:00:00+00:00,806.9051233336689
2025-08-01 19:00:00+00:00,806.9051233336689
2025-08-04 13:00:00+00:00,806.9051233336689
2025-08-04 14:00:00+00:00,806.9051233336689
2025-08-04 15:00:00+00:00,806.9051233336689
2025-08-04 16:00:00+00:00,806.9051233336689
2025-08-04 17:00:00+00:00,806.9051233336689
2025-08-04 18:00:00+00:00,806.9051233336689
2025-08-04 19:00:00+00:00,806.9051233336689
2025-08-05 13:00:00+00:00,806.9051233336689
2025-08-05 14:00:00+00:00,806.9051233336689
2025-08-05 15:00:00+00:00,806.9051233336689
2025-08-05 16:00:00+00:00,806.9051233336689
2025-08-05 17:00:00+00:00,806.9051233336689
2025-08-05 18:00:00+00:00,806.9051233336689
2025-08-05 19:00:00+00:00,806.9051233336689
2025-08-06 13:00:00+00:00,806.9051233336689
2025-08-06 14:00:00+00:00,806.9051233336689
2025-08-06 15:00:00+00:00,806.9051233336689
2025-08-06 16:00:00+00:00,806.9051233336689
2025-08-06 17:00:00+00:00,806.9051233336689
2025-08-06 18:00:00+00:00,806.9051233336689
2025-08-06 19:00:00+00:00,806.9051233336689
2025-08-07 13:00:00+00:00,806.9051233336689
2025-08-07 14:00:00+00:00,806.9051233336689
2025-08-07 15:00:00+00:00,806.9051233336689
2025-08-07 16:00:00+00:00,806.9051233336689
2025-08-07 17:00:00+00:00,806.9051233336689
2025-08-07 18:00:00+00:00,806.9051233336689
2025-08-07 19:00:00+00:00,806.9051233336689
2025-08-08 13:00:00+00:00,806.9051233336689
2025-08-08 14:00:00+00:00,806.9051233336689
2025-08-08 15:00:00+00:00,806.9051233336689
2025-08-08 16:00:00+00:00,806.9051233336689
2025-08-08 17:00:00+00:00,806.9051233336689
2025-08-08 18:00:00+00:00,806.9051233336689
2025-08-08 19:00:00+00:00,806.9051233336689
2025-08-11 13:00:00+00:00,806.9051233336689
2025-08-11 14:00:00+00:00,806.9051233336689
2025-08-11 15:00:00+00:00,806.9051233336689
2025-08-11 16:00:00+00:00,806.9051233336689
2025-08-11 17:00:00+00:00,806.9051233336689
2025-08-11 18:00:00+00:00,806.9051233336689
2025-08-11 19:00:00+00:00,806.9051233336689
2025-08-12 13:00:00+00:00,806.9051233336689
2025-08-12 14:00:00+00:00,806.9051233336689
2025-08-12 15:00:00+00:00,806.9051233336689
2025-08-12 16:00:00+00:00,806.9051233336689
2025-08-12 17:00:00+00:00,806.9051233336689
2025-08-12 18:00:00+00:00,806.9051233336689
2025-08-12 19:00:00+00:00,806.9051233336689
2025-08-13 13:00:00+00:00,806.9051233336689
2025-08-13 14:00:00+00:00,806.9051233336689
2025-08-13 15:00:00+00:00,806.9051233336689
2025-08-13 16:00:00+00:00,806.9051233336689
2025-08-13 17:00:00+00:00,806.9051233336689
2025-08-13 18:00:00+00:00,806.9051233336689
2025-08-13 19:00:00+00:00,806.9051233336689
2025-08-14 13:00:00+00:00,806.9051233336689
2025-08-14 14:00:00+00:00,806.9051233336689
2025-08-14 15:00:00+00:00,806.9051233336689
2025-08-14 16:00:00+00:00,806.9051233336689
2025-08-14 17:00:00+00:00,806.9051233336689
2025-08-14 18:00:00+00:00,806.9051233336689
2025-08-14 19:00:00+00:00,806.9051233336689
2025-08-15 13:00:00+00:00,806.9051233336689
2025-08-15 14:00:00+00:00,806.9051233336689
2025-08-15 15:00:00+00:00,806.9051233336689
2025-08-15 16:00:00+00:00,806.9051233336689
2025-08-15 17:00:00+00:00,806.9051233336689
2025-08-15 18:00:00+00:00,806.9051233336689
2025-08-15 19:00:00+00:00,806.9051233336689
2025-08-18 13:00:00+00:00,806.9051233336689
2025-08-18 14:00:00+00:00,806.9051233336689
2025-08-18 15:00:00+00:00,806.9051233336689
2025-08-18 16:00:00+00:00,806.9051233336689
2025-08-18 17:00:00+00:00,806.9051233336689
2025-08-18 18:00:00+00:00,806.9051233336689
2025-08-18 19:00:00+00:00,806.9051233336689
2025-08-19 13:00:00+00:00,806.9051233336689
2025-08-19 14:00:00+00:00,806.9051233336689
2025-08-19 15:00:00+00:00,806.9051233336689
2025-08-19 16:00:00+00:00,806.9051233336689
2025-08-19 17:00:00+00:00,806.9051233336689
2025-08-19 18:00:00+00:00,806.9051233336689
2025-08-19 19:00:00+00:00,806.9051233336689
2025-08-20 13:00:00+00:00,806.9051233336689
2025-08-20 14:00:00+00:00,806.9051233336689
2025-08-20 15:00:00+00:00,806.9051233336689
2025-08-20 16:00:00+00:00,806.9051233336689
2025-08-20 17:00:00+00:00,806.9051233336689
2025-08-20 18:00:00+00:00,806.9051233336689
2025-08-20 19:00:00+00:00,806.9051233336689
2025-08-21 13:00:00+00:00,806.9051233336689
2025-08-21 14:00:00+00:00,806.9051233336689
2025-08-21 15:00:00+00:00,806.9051233336689
2025-08-21 16:00:00+00:00,806.9051233336689
2025-08-21 17:00:00+00:00,806.9051233336689
2025-08-21 18:00:00+00:00,806.9051233336689
2025-08-21 19:00:00+00:00,806.9051233336689
2025-08-22 13:00:00+00:00,806.9051233336689
2025-08-22 14:00:00+00:00,806.9051233336689
2025-08-22 15:00:00+00:00,806.9051233336689
2025-08-22 16:00:00+00:00,806.9051233336689
2025-08-22 17:00:00+00:00,806.9051233336689
2025-08-22 18:00:00+00:00,806.9051233336689
2025-08-22 19:00:00+00:00,806.9051233336689
2025-08-25 13:00:00+00:00,806.9051233336689
2025-08-25 14:00:00+00:00,806.9051233336689
2025-08-25 15:00:00+00:00,806.9051233336689
2025-08-25 16:00:00+00:00,806.9051233336689
2025-08-25 17:00:00+00:00,806.9051233336689
2025-08-25 18:00:00+00:00,806.9051233336689
2025-08-25 19:00:00+00:00,806.9051233336689
2025-08-26 13:00:00+00:00,806.9051233336689
2025-08-26 14:00:00+00:00,806.9051233336689
2025-08-26 15:00:00+00:00,806.9051233336689
2025-08-26 16:00:00+00:00,806.9051233336689
2025-08-26 17:00:00+00:00,806.9051233336689
2025-08-26 18:00:00+00:00,806.9051233336689
2025-08-26 19:00:00+00:00,806.9051233336689
2025-08-27 13:00:00+00:00,806.9051233336689
2025-08-27 14:00:00+00:00,806.9051233336689
2025-08-27 15:00:00+00:00,806.9051233336689
2025-08-27 16:00:00+00:00,806.9051233336689
2025-08-27 17:00:00+00:00,806.9051233336689
2025-08-27 18:00:00+00:00,806.9051233336689
2025-08-27 19:00:00+00:00,806.9051233336689
2025-08-28 13:00:00+00:00,806.9051233336689
2025-08-28 14:00:00+00:00,806.9051233336689
2025-08-28 15:00:00+00:00,806.9051233336689
2025-08-28 16:00:00+00:00,806.9051233336689
2025-08-28 17:00:00+00:00,806.9051233336689
2025-08-28 18:00:00+00:00,806.9051233336689
2025-08-28 19:00:00+00:00,806.9051233336689
2025-08-29 13:00:00+00:00,806.9051233336689
2025-08-29 14:00:00+00:00,806.9051233336689
2025-08-29 15:00:00+00:00,806.9051233336689
2025-08-29 16:00:00+00:00,806.9051233336689
2025-08-29 17:00:00+00:00,806.9051233336689
2025-08-29 18:00:00+00:00,806.9051233336689
2025-08-29 19:00:00+00:00,806.9051233336689
2025-09-02 13:00:00+00:00,806.9051233336689
2025-09-02 14:00:00+00:00,806.9051233336689
2025-09-02 15:00:00+00:00,806.9051233336689
2025-09-02 16:00:00+00:00,806.9051233336689
2025-09-02 17:00:00+00:00,806.9051233336689
2025-09-02 18:00:00+00:00,806.9051233336689
2025-09-02 19:00:00+00:00,806.9051233336689
2025-09-03 13:00:00+00:00,806.9051233336689
2025-09-03 14:00:00+00:00,806.9051233336689
2025-09-03 15:00:00+00:00,806.9051233336689
2025-09-03 16:00:00+00:00,806.9051233336689
2025-09-03 17:00:00+00:00,806.9051233336689
2025-09-03 18:00:00+00:00,806.9051233336689
2025-09-03 19:00:00+00:00,806.9051233336689
2025-09-04 13:00:00+00:00,806.9051233336689
2025-09-04 14:00:00+00:00,806.9051233336689
2025-09-04 15:00:00+00:00,806.9051233336689
2025-09-04 16:00:00+00:00,806.9051233336689
2025-09-04 17:00:00+00:00,806.9051233336689
2025-09-04 18:00:00+00:00,806.9051233336689
2025-09-04 19:00:00+00:00,806.9051233336689
2025-09-05 13:00:00+00:00,806.9051233336689
2025-09-05 14:00:00+00:00,806.9051233336689
2025-09-05 15:00:00+00:00,806.9051233336689
2025-09-05 16:00:00+00:00,806.9051233336689
2025-09-05 17:00:00+00:00,806.9051233336689
2025-09-05 18:00:00+00:00,806.9051233336689
2025-09-05 19:00:00+00:00,806.9051233336689
2025-09-08 13:00:00+00:00,806.9051233336689
2025-09-08 14:00:00+00:00,806.9051233336689
2025-09-08 15:00:00+00:00,806.9051233336689
2025-09-08 16:00:00+00:00,806.9051233336689
2025-09-08 17:00:00+00:00,806.9051233336689
2025-09-08 18:00:00+00:00,806.9051233336689
2025-09-08 19:00:00+00:00,806.9051233336689
2025-09-09 13:00:00+00:00,806.9051233336689
2025-09-09 14:00:00+00:00,806.9051233336689
2025-09-09 15:00:00+00:00,806.9051233336689
2025-09-09 16:00:00+00:00,806.9051233336689
2025-09-09 17:00:00+00:00,806.9051233336689
2025-09-09 18:00:00+00:00,806.9051233336689
2025-09-09 19:00:00+00:00,806.9051233336689
2025-09-10 13:00:00+00:00,806.9051233336689
2025-09-10 14:00:00+00:00,806.9051233336689
2025-09-10 15:00:00+00:00,806.9051233336689
2025-09-10 16:00:00+00:00,806.9051233336689
2025-09-10 17:00:00+00:00,806.9051233336689
2025-09-10 18:00:00+00:00,806.9051233336689
2025-09-10 19:00:00+00:00,806.9051233336689
2025-09-11 13:00:00+00:00,806.9051233336689
2025-09-11 14:00:00+00:00,806.9051233336689
2025-09-11 15:00:00+00:00,806.9051233336689
2025-09-11 16:00:00+00:00,806.9051233336689
2025-09-11 17:00:00+00:00,806.9051233336689
2025-09-11 18:00:00+00:00,806.9051233336689
2025-09-11 19:00:00+00:00,806.9051233336689
2025-09-12 13:00:00+00:00,806.9051233336689
2025-09-12 14:00:00+00:00,806.9051233336689
2025-09-12 15:00:00+00:00,806.9051233336689
2025-09-12 16:00:00+00:00,806.9051233336689
2025-09-12 17:00:00+00:00,806.9051233336689
2025-09-12 18:00:00+00:00,806.9051233336689
2025-09-12 19:00:00+00:00,806.9051233336689
2025-09-15 13:00:00+00:00,806.9051233336689
2025-09-15 14:00:00+00:00,806.9051233336689
2025-09-15 15:00:00+00:00,806.9051233336689
2025-09-15 16:00:00+00:00,806.9051233336689
2025-09-15 17:00:00+00:00,806.9051233336689
2025-09-15 18:00:00+00:00,806.9051233336689
2025-09-15 19:00:00+00:00,806.9051233336689
2025-09-16 13:00:00+00:00,806.9051233336689
2025-09-16 14:00:00+00:00,806.9051233336689
2025-09-16 15:00:00+00:00,806.9051233336689
2025-09-16 16:00:00+00:00,806.9051233336689
2025-09-16 17:00:00+00:00,806.9051233336689
2025-09-16 18:00:00+00:00,806.9051233336689
2025-09-16 19:00:00+00:00,806.9051233336689
2025-09-17 13:00:00+00:00,806.9051233336689
2025-09-17 14:00:00+00:00,806.9051233336689
2025-09-17 15:00:00+00:00,806.9051233336689
2025-09-17 16:00:00+00:00,806.9051233336689
2025-09-17 17:00:00+00:00,806.9051233336689
2025-09-17 18:00:00+00:00,806.9051233336689
2025-09-17 19:00:00+00:00,806.9051233336689
2025-09-18 13:00:00+00:00,806.9051233336689
2025-09-18 14:00:00+00:00,806.9051233336689
2025-09-18 15:00:00+00:00,806.9051233336689
2025-09-18 16:00:00+00:00,806.9051233336689
2025-09-18 17:00:00+00:00,806.9051233336689
2025-09-18 18:00:00+00:00,806.9051233336689
2025-09-18 19:00:00+00:00,806.9051233336689
2025-09-19 13:00:00+00:00,806.9051233336689
2025-09-19 14:00:00+00:00,806.9051233336689
2025-09-19 15:00:00+00:00,806.9051233336689
2025-09-19 16:00:00+00:00,806.9051233336689
2025-09-19 17:00:00+00:00,806.9051233336689
2025-09-19 18:00:00+00:00,806.9051233336689
2025-09-19 19:00:00+00:00,806.9051233336689
2025-09-22 13:00:00+00:00,806.9051233336689
2025-09-22 14:00:00+00:00,806.9051233336689
2025-09-22 15:00:00+00:00,806.9051233336689
2025-09-22 16:00:00+00:00,806.9051233336689
2025-09-22 17:00:00+00:00,806.9051233336689
2025-09-22 18:00:00+00:00,806.9051233336689
2025-09-22 19:00:00+00:00,806.9051233336689
2025-09-23 13:00:00+00:00,806.9051233336689
2025-09-23 14:00:00+00:00,806.9051233336689
2025-09-23 15:00:00+00:00,806.9051233336689
2025-09-23 16:00:00+00:00,806.9051233336689
2025-09-23 17:00:00+00:00,806.9051233336689
2025-09-23 18:00:00+00:00,806.9051233336689
2025-09-23 19:00:00+00:00,806.9051233336689
2025-09-24 13:00:00+00:00,806.9051233336689
2025-09-24 14:00:00+00:00,806.9051233336689
2025-09-24 15:00:00+00:00,806.9051233336689
2025-09-24 16:00:00+00:00,806.9051233336689
2025-09-24 17:00:00+00:00,806.9051233336689
2025-09-24 18:00:00+00:00,806.9051233336689
2025-09-24 19:00:00+00:00,806.9051233336689
2025-09-25 13:00:00+00:00,806.9051233336689
2025-09-25 14:00:00+00:00,806.9051233336689
2025-09-25 15:00:00+00:00,806.9051233336689
2025-09-25 16:00:00+00:00,806.9051233336689
2025-09-25 17:00:00+00:00,806.9051233336689
2025-09-25 18:00:00+00:00,806.9051233336689
2025-09-25 19:00:00+00:00,806.9051233336689
2025-09-26 13:00:00+00:00,806.9051233336689
2025-09-26 14:00:00+00:00,806.9051233336689
2025-09-26 15:00:00+00:00,806.9051233336689
2025-09-26 16:00:00+00:00,806.9051233336689
2025-09-26 17:00:00+00:00,806.9051233336689
2025-09-26 18:00:00+00:00,806.9051233336689
2025-09-26 19:00:00+00:00,806.9051233336689
2025-09-29 13:00:00+00:00,806.9051233336689
2025-09-29 14:00:00+00:00,806.9051233336689
2025-09-29 15:00:00+00:00,806.9051233336689
2025-09-29 16:00:00+00:00,806.9051233336689
2025-09-29 17:00:00+00:00,806.9051233336689
2025-09-29 18:00:00+00:00,806.9051233336689
2025-09-29 19:00:00+00:00,806.9051233336689
2025-09-30 13:00:00+00:00,806.9051233336689
2025-09-30 14:00:00+00:00,806.9051233336689
2025-09-30 15:00:00+00:00,806.9051233336689
2025-09-30 16:00:00+00:00,806.9051233336689
2025-09-30 17:00:00+00:00,806.9051233336689
2025-09-30 18:00:00+00:00,806.9051233336689
2025-09-30 19:00:00+00:00,806.9051233336689
2025-10-01 13:00:00+00:00,806.9051233336689
2025-10-01 14:00:00+00:00,806.9051233336689
2025-10-01 15:00:00+00:00,806.9051233336689
2025-10-01 16:00:00+00:00,806.9051233336689
2025-10-01 17:00:00+00:00,806.9051233336689
2025-10-01 18:00:00+00:00,806.9051233336689
2025-10-01 19:00:00+00:00,806.9051233336689
2025-10-02 13:00:00+00:00,806.9051233336689
2025-10-02 14:00:00+00:00,806.9051233336689
2025-10-02 15:00:00+00:00,806.9051233336689
2025-10-02 16:00:00+00:00,806.9051233336689
2025-10-02 17:00:00+00:00,806.9051233336689
2025-10-02 18:00:00+00:00,806.9051233336689
2025-10-02 19:00:00+00:00,806.9051233336689
2025-10-03 13:00:00+00:00,806.9051233336689
2025-10-03 14:00:00+00:00,806.9051233336689
2025-10-03 15:00:00+00:00,806.9051233336689
2025-10-03 16:00:00+00:00,806.9051233336689
2025-10-03 17:00:00+00:00,806.9051233336689
2025-10-03 18:00:00+00:00,806.9051233336689
2025-10-03 19:00:00+00:00,806.9051233336689
2025-10-06 13:00:00+00:00,806.9051233336689
2025-10-06 14:00:00+00:00,806.9051233336689
2025-10-06 15:00:00+00:00,806.9051233336689
2025-10-06 16:00:00+00:00,806.9051233336689
2025-10-06 17:00:00+00:00,806.9051233336689
2025-10-06 18:00:00+00:00,806.9051233336689
2025-10-06 19:00:00+00:00,806.9051233336689
2025-10-07 13:00:00+00:00,806.9051233336689
2025-10-07 14:00:00+00:00,806.9051233336689
2025-10-07 15:00:00+00:00,806.9051233336689
2025-10-07 16:00:00+00:00,806.9051233336689
2025-10-07 17:00:00+00:00,806.9051233336689
2025-10-07 18:00:00+00:00,806.9051233336689
2025-10-07 19:00:00+00:00,806.9051233336689
2025-10-08 13:00:00+00:00,806.9051233336689
2025-10-08 14:00:00+00:00,806.9051233336689
2025-10-08 15:00:00+00:00,806.9051233336689
2025-10-08 16:00:00+00:00,806.9051233336689
2025-10-08 17:00:00+00:00,806.9051233336689
2025-10-08 18:00:00+00:00,806.9051233336689
2025-10-08 19:00:00+00:00,806.9051233336689
2025-10-09 13:00:00+00:00,806.9051233336689
2025-10-09 14:00:00+00:00,806.9051233336689
2025-10-09 15:00:00+00:00,806.9051233336689
2025-10-09 16:00:00+00:00,806.9051233336689
2025-10-09 17:00:00+00:00,806.9051233336689
2025-10-09 18:00:00+00:00,806.9051233336689
2025-10-09 19:00:00+00:00,806.9051233336689
2025-10-10 13:00:00+00:00,806.9051233336689
2025-10-10 14:00:00+00:00,806.9051233336689
2025-10-10 15:00:00+00:00,806.9051233336689
2025-10-10 16:00:00+00:00,806.9051233336689
2025-10-10 17:00:00+00:00,806.9051233336689
2025-10-10 18:00:00+00:00,806.9051233336689
2025-10-10 19:00:00+00:00,806.9051233336689
2025-10-13 13:00:00+00:00,806.9051233336689
2025-10-13 14:00:00+00:00,806.9051233336689
2025-10-13 15:00:00+00:00,806.9051233336689
2025-10-13 16:00:00+00:00,806.9051233336689
2025-10-13 17:00:00+00:00,806.9051233336689
2025-10-13 18:00:00+00:00,806.9051233336689
2025-10-13 19:00:00+00:00,806.9051233336689
2025-10-14 13:00:00+00:00,806.9051233336689
2025-10-14 14:00:00+00:00,806.9051233336689
2025-10-14 15:00:00+00:00,806.9051233336689
2025-10-14 16:00:00+00:00,806.9051233336689
2025-10-14 17:00:00+00:00,806.9051233336689
2025-10-14 18:00:00+00:00,806.9051233336689
2025-10-14 19:00:00+00:00,806.9051233336689
2025-10-15 13:00:00+00:00,806.9051233336689
2025-10-15 14:00:00+00:00,806.9051233336689
2025-10-15 15:00:00+00:00,806.9051233336689
2025-10-15 16:00:00+00:00,806.9051233336689
2025-10-15 17:00:00+00:00,806.9051233336689
2025-10-15 18:00:00+00:00,806.9051233336689
2025-10-15 19:00:00+00:00,806.9051233336689
2025-10-16 13:00:00+00:00,806.9051233336689
2025-10-16 14:00:00+00:00,806.9051233336689
2025-10-16 15:00:00+00:00,806.9051233336689
2025-10-16 16:00:00+00:00,806.9051233336689
2025-10-16 17:00:00+00:00,806.9051233336689
2025-10-16 18:00:00+00:00,806.9051233336689
2025-10-16 19:00:00+00:00,806.9051233336689
2025-10-17 13:00:00+00:00,806.9051233336689
2025-10-17 14:00:00+00:00,806.9051233336689
2025-10-17 15:00:00+00:00,806.9051233336689
2025-10-17 16:00:00+00:00,806.9051233336689
2025-10-17 17:00:00+00:00,806.9051233336689
2025-10-17 18:00:00+00:00,806.9051233336689
2025-10-17 19:00:00+00:00,806.9051233336689
2025-10-20 13:00:00+00:00,806.9051233336689
2025-10-20 14:00:00+00:00,806.9051233336689
