Date,0
2024-01-02 14:00:00+00:00,0.0
2024-01-02 15:00:00+00:00,0.0
2024-01-02 16:00:00+00:00,0.0
2024-01-02 17:00:00+00:00,0.0
2024-01-02 18:00:00+00:00,0.0
2024-01-02 19:00:00+00:00,0.0
2024-01-02 20:00:00+00:00,0.0
2024-01-03 14:00:00+00:00,0.0
2024-01-03 15:00:00+00:00,0.0
2024-01-03 16:00:00+00:00,0.0
2024-01-03 17:00:00+00:00,0.0
2024-01-03 18:00:00+00:00,0.0
2024-01-03 19:00:00+00:00,0.0
2024-01-03 20:00:00+00:00,0.0
2024-01-04 14:00:00+00:00,0.0
2024-01-04 15:00:00+00:00,0.0
2024-01-04 16:00:00+00:00,0.0
2024-01-04 17:00:00+00:00,0.0
2024-01-04 18:00:00+00:00,0.0
2024-01-04 19:00:00+00:00,0.0
2024-01-04 20:00:00+00:00,0.0
2024-01-05 14:00:00+00:00,0.0
2024-01-05 15:00:00+00:00,0.0
2024-01-05 16:00:00+00:00,0.0
2024-01-05 17:00:00+00:00,0.0
2024-01-05 18:00:00+00:00,0.0
2024-01-05 19:00:00+00:00,0.0
2024-01-05 20:00:00+00:00,0.0
2024-01-08 14:00:00+00:00,0.0
2024-01-08 15:00:00+00:00,0.0
2024-01-08 16:00:00+00:00,0.0
2024-01-08 17:00:00+00:00,0.0
2024-01-08 18:00:00+00:00,0.0
2024-01-08 19:00:00+00:00,0.0
2024-01-08 20:00:00+00:00,0.0
2024-01-09 14:00:00+00:00,0.0
2024-01-09 15:00:00+00:00,0.0
2024-01-09 16:00:00+00:00,0.0
2024-01-09 17:00:00+00:00,0.0
2024-01-09 18:00:00+00:00,0.0
2024-01-09 19:00:00+00:00,0.0
2024-01-09 20:00:00+00:00,0.0
2024-01-10 14:00:00+00:00,0.0
2024-01-10 15:00:00+00:00,0.0
2024-01-10 16:00:00+00:00,0.0
2024-01-10 17:00:00+00:00,0.0
2024-01-10 18:00:00+00:00,0.0
2024-01-10 19:00:00+00:00,0.0
2024-01-10 20:00:00+00:00,0.0
2024-01-11 14:00:00+00:00,0.0
2024-01-11 15:00:00+00:00,0.0
2024-01-11 16:00:00+00:00,0.0
2024-01-11 17:00:00+00:00,0.0
2024-01-11 18:00:00+00:00,0.0
2024-01-11 19:00:00+00:00,0.0
2024-01-11 20:00:00+00:00,0.0
2024-01-12 14:00:00+00:00,0.0
2024-01-12 15:00:00+00:00,0.0
2024-01-12 16:00:00+00:00,0.0
2024-01-12 17:00:00+00:00,0.0
2024-01-12 18:00:00+00:00,0.0
2024-01-12 19:00:00+00:00,0.0
2024-01-12 20:00:00+00:00,0.0
2024-01-16 14:00:00+00:00,0.0
2024-01-16 15:00:00+00:00,0.0
2024-01-16 16:00:00+00:00,0.0
2024-01-16 17:00:00+00:00,0.0
2024-01-16 18:00:00+00:00,0.0
2024-01-16 19:00:00+00:00,0.0
2024-01-16 20:00:00+00:00,0.0
2024-01-17 14:00:00+00:00,0.0
2024-01-17 15:00:00+00:00,0.0
2024-01-17 16:00:00+00:00,0.0
2024-01-17 17:00:00+00:00,0.0
2024-01-17 18:00:00+00:00,0.0
2024-01-17 19:00:00+00:00,0.0
2024-01-17 20:00:00+00:00,0.0
2024-01-18 14:00:00+00:00,0.0
2024-01-18 15:00:00+00:00,0.0
2024-01-18 16:00:00+00:00,0.0
2024-01-18 17:00:00+00:00,0.0
2024-01-18 18:00:00+00:00,0.0
2024-01-18 19:00:00+00:00,0.0
2024-01-18 20:00:00+00:00,0.0
2024-01-19 14:00:00+00:00,0.0
2024-01-19 15:00:00+00:00,0.0
2024-01-19 16:00:00+00:00,0.0
2024-01-19 17:00:00+00:00,0.0
2024-01-19 18:00:00+00:00,0.0
2024-01-19 19:00:00+00:00,0.0
2024-01-19 20:00:00+00:00,0.0
2024-01-22 14:00:00+00:00,0.0
2024-01-22 15:00:00+00:00,0.0
2024-01-22 16:00:00+00:00,0.0
2024-01-22 17:00:00+00:00,0.0
2024-01-22 18:00:00+00:00,0.0
2024-01-22 19:00:00+00:00,0.0
2024-01-22 20:00:00+00:00,0.0
2024-01-23 14:00:00+00:00,0.0
2024-01-23 15:00:00+00:00,0.0
2024-01-23 16:00:00+00:00,0.0
2024-01-23 17:00:00+00:00,0.0
2024-01-23 18:00:00+00:00,0.0
2024-01-23 19:00:00+00:00,0.0
2024-01-23 20:00:00+00:00,0.0
2024-01-24 14:00:00+00:00,0.0
2024-01-24 15:00:00+00:00,0.0
2024-01-24 16:00:00+00:00,0.0
2024-01-24 17:00:00+00:00,0.0
2024-01-24 18:00:00+00:00,0.0
2024-01-24 19:00:00+00:00,0.0
2024-01-24 20:00:00+00:00,0.0
2024-01-25 14:00:00+00:00,0.0
2024-01-25 15:00:00+00:00,0.0
2024-01-25 16:00:00+00:00,0.0
2024-01-25 17:00:00+00:00,0.0
2024-01-25 18:00:00+00:00,0.0
2024-01-25 19:00:00+00:00,0.0
2024-01-25 20:00:00+00:00,0.0
2024-01-26 14:00:00+00:00,0.0
2024-01-26 15:00:00+00:00,0.0
2024-01-26 16:00:00+00:00,0.0
2024-01-26 17:00:00+00:00,0.0
2024-01-26 18:00:00+00:00,0.0
2024-01-26 19:00:00+00:00,0.0
2024-01-26 20:00:00+00:00,0.0
2024-01-29 14:00:00+00:00,0.0
2024-01-29 15:00:00+00:00,0.0
2024-01-29 16:00:00+00:00,0.0
2024-01-29 17:00:00+00:00,0.0
2024-01-29 18:00:00+00:00,0.0
2024-01-29 19:00:00+00:00,0.0
2024-01-29 20:00:00+00:00,0.0
2024-01-30 14:00:00+00:00,0.0
2024-01-30 15:00:00+00:00,0.0
2024-01-30 16:00:00+00:00,0.0
2024-01-30 17:00:00+00:00,0.0
2024-01-30 18:00:00+00:00,0.0
2024-01-30 19:00:00+00:00,0.0
2024-01-30 20:00:00+00:00,0.0
2024-01-31 14:00:00+00:00,0.0
2024-01-31 15:00:00+00:00,0.0
2024-01-31 16:00:00+00:00,0.0
2024-01-31 17:00:00+00:00,0.0
2024-01-31 18:00:00+00:00,0.0
2024-01-31 19:00:00+00:00,0.0
2024-01-31 20:00:00+00:00,0.0
2024-02-01 14:00:00+00:00,0.0
2024-02-01 15:00:00+00:00,0.0
2024-02-01 16:00:00+00:00,0.0
2024-02-01 17:00:00+00:00,0.0
2024-02-01 18:00:00+00:00,0.0
2024-02-01 19:00:00+00:00,0.0
2024-02-01 20:00:00+00:00,0.0
2024-02-02 14:00:00+00:00,0.0
2024-02-02 15:00:00+00:00,0.0
2024-02-02 16:00:00+00:00,0.0
2024-02-02 17:00:00+00:00,0.0
2024-02-02 18:00:00+00:00,0.0
2024-02-02 19:00:00+00:00,0.0
2024-02-02 20:00:00+00:00,0.0
2024-02-05 14:00:00+00:00,0.0
2024-02-05 15:00:00+00:00,0.0
2024-02-05 16:00:00+00:00,0.0
2024-02-05 17:00:00+00:00,0.0
2024-02-05 18:00:00+00:00,0.0
2024-02-05 19:00:00+00:00,0.0
2024-02-05 20:00:00+00:00,0.0
2024-02-06 14:00:00+00:00,0.0
2024-02-06 15:00:00+00:00,0.0
2024-02-06 16:00:00+00:00,0.0
2024-02-06 17:00:00+00:00,0.0
2024-02-06 18:00:00+00:00,0.0
2024-02-06 19:00:00+00:00,0.0
2024-02-06 20:00:00+00:00,0.0
2024-02-07 14:00:00+00:00,0.0
2024-02-07 15:00:00+00:00,0.0
2024-02-07 16:00:00+00:00,0.0
2024-02-07 17:00:00+00:00,0.0
2024-02-07 18:00:00+00:00,0.0
2024-02-07 19:00:00+00:00,0.0
2024-02-07 20:00:00+00:00,0.0
2024-02-08 14:00:00+00:00,0.0
2024-02-08 15:00:00+00:00,0.0
2024-02-08 16:00:00+00:00,0.0
2024-02-08 17:00:00+00:00,0.0
2024-02-08 18:00:00+00:00,0.0
2024-02-08 19:00:00+00:00,0.0
2024-02-08 20:00:00+00:00,0.0
2024-02-09 14:00:00+00:00,0.0
2024-02-09 15:00:00+00:00,0.0
2024-02-09 16:00:00+00:00,0.0
2024-02-09 17:00:00+00:00,0.0
2024-02-09 18:00:00+00:00,0.0
2024-02-09 19:00:00+00:00,0.0
2024-02-09 20:00:00+00:00,0.0
2024-02-12 14:00:00+00:00,0.0
2024-02-12 15:00:00+00:00,0.0
2024-02-12 16:00:00+00:00,0.0
2024-02-12 17:00:00+00:00,0.0
2024-02-12 18:00:00+00:00,0.0
2024-02-12 19:00:00+00:00,0.0
2024-02-12 20:00:00+00:00,0.0
2024-02-13 14:00:00+00:00,0.0
2024-02-13 15:00:00+00:00,0.0
2024-02-13 16:00:00+00:00,0.0
2024-02-13 17:00:00+00:00,0.0
2024-02-13 18:00:00+00:00,0.0
2024-02-13 19:00:00+00:00,0.0
2024-02-13 20:00:00+00:00,0.0
2024-02-14 14:00:00+00:00,0.0
2024-02-14 15:00:00+00:00,0.0
2024-02-14 16:00:00+00:00,0.0
2024-02-14 17:00:00+00:00,0.0
2024-02-14 18:00:00+00:00,0.0
2024-02-14 19:00:00+00:00,0.0
2024-02-14 20:00:00+00:00,0.0
2024-02-15 14:00:00+00:00,0.0
2024-02-15 15:00:00+00:00,0.0
2024-02-15 16:00:00+00:00,0.0
2024-02-15 17:00:00+00:00,0.0
2024-02-15 18:00:00+00:00,0.0
2024-02-15 19:00:00+00:00,0.0
2024-02-15 20:00:00+00:00,0.0
2024-02-16 14:00:00+00:00,0.0
2024-02-16 15:00:00+00:00,0.0
2024-02-16 16:00:00+00:00,0.0
2024-02-16 17:00:00+00:00,0.0
2024-02-16 18:00:00+00:00,0.0
2024-02-16 19:00:00+00:00,0.0
2024-02-16 20:00:00+00:00,0.0
2024-02-20 14:00:00+00:00,0.0
2024-02-20 15:00:00+00:00,0.0
2024-02-20 16:00:00+00:00,0.0
2024-02-20 17:00:00+00:00,0.0
2024-02-20 18:00:00+00:00,0.0
2024-02-20 19:00:00+00:00,0.0
2024-02-20 20:00:00+00:00,0.0
2024-02-21 14:00:00+00:00,0.0
2024-02-21 15:00:00+00:00,0.0
2024-02-21 16:00:00+00:00,0.0
2024-02-21 17:00:00+00:00,0.0
2024-02-21 18:00:00+00:00,0.0
2024-02-21 19:00:00+00:00,0.0
2024-02-21 20:00:00+00:00,0.0
2024-02-22 14:00:00+00:00,0.0
2024-02-22 15:00:00+00:00,0.0
2024-02-22 16:00:00+00:00,0.0
2024-02-22 17:00:00+00:00,0.0
2024-02-22 18:00:00+00:00,0.0
2024-02-22 19:00:00+00:00,0.0
2024-02-22 20:00:00+00:00,0.0
2024-02-23 14:00:00+00:00,0.0
2024-02-23 15:00:00+00:00,0.0
2024-02-23 16:00:00+00:00,0.0
2024-02-23 17:00:00+00:00,0.0
2024-02-23 18:00:00+00:00,0.0
2024-02-23 19:00:00+00:00,0.0
2024-02-23 20:00:00+00:00,0.0
2024-02-26 14:00:00+00:00,0.0
2024-02-26 15:00:00+00:00,0.0
2024-02-26 16:00:00+00:00,0.0
2024-02-26 17:00:00+00:00,0.0
2024-02-26 18:00:00+00:00,0.0
2024-02-26 19:00:00+00:00,0.0
2024-02-26 20:00:00+00:00,0.0
2024-02-27 14:00:00+00:00,0.0
2024-02-27 15:00:00+00:00,0.0
2024-02-27 16:00:00+00:00,0.0
2024-02-27 17:00:00+00:00,0.0
2024-02-27 18:00:00+00:00,0.0
2024-02-27 19:00:00+00:00,0.0
2024-02-27 20:00:00+00:00,0.0
2024-02-28 14:00:00+00:00,0.0
2024-02-28 15:00:00+00:00,0.0
2024-02-28 16:00:00+00:00,0.0
2024-02-28 17:00:00+00:00,0.0
2024-02-28 18:00:00+00:00,0.0
2024-02-28 19:00:00+00:00,0.0
2024-02-28 20:00:00+00:00,0.0
2024-02-29 14:00:00+00:00,0.0
2024-02-29 15:00:00+00:00,0.0
2024-02-29 16:00:00+00:00,0.0
2024-02-29 17:00:00+00:00,0.0
2024-02-29 18:00:00+00:00,0.0
2024-02-29 19:00:00+00:00,0.0
2024-02-29 20:00:00+00:00,0.0
2024-03-01 14:00:00+00:00,0.0
2024-03-01 15:00:00+00:00,0.0
2024-03-01 16:00:00+00:00,0.0
2024-03-01 17:00:00+00:00,0.0
2024-03-01 18:00:00+00:00,0.0
2024-03-01 19:00:00+00:00,0.0
2024-03-01 20:00:00+00:00,0.0
2024-03-04 14:00:00+00:00,0.0
2024-03-04 15:00:00+00:00,0.0
2024-03-04 16:00:00+00:00,0.0
2024-03-04 17:00:00+00:00,0.0
2024-03-04 18:00:00+00:00,0.0
2024-03-04 19:00:00+00:00,0.0
2024-03-04 20:00:00+00:00,0.0
2024-03-05 14:00:00+00:00,0.0
2024-03-05 15:00:00+00:00,0.0
2024-03-05 16:00:00+00:00,0.0
2024-03-05 17:00:00+00:00,0.0
2024-03-05 18:00:00+00:00,0.0
2024-03-05 19:00:00+00:00,0.0
2024-03-05 20:00:00+00:00,0.0
2024-03-06 14:00:00+00:00,0.0
2024-03-06 15:00:00+00:00,0.0
2024-03-06 16:00:00+00:00,0.0
2024-03-06 17:00:00+00:00,0.0
2024-03-06 18:00:00+00:00,0.0
2024-03-06 19:00:00+00:00,0.0
2024-03-06 20:00:00+00:00,0.0
2024-03-07 14:00:00+00:00,0.0
2024-03-07 15:00:00+00:00,0.0
2024-03-07 16:00:00+00:00,0.0
2024-03-07 17:00:00+00:00,0.0
2024-03-07 18:00:00+00:00,0.0
2024-03-07 19:00:00+00:00,0.0
2024-03-07 20:00:00+00:00,0.0
2024-03-08 14:00:00+00:00,0.0
2024-03-08 15:00:00+00:00,0.0
2024-03-08 16:00:00+00:00,0.0
2024-03-08 17:00:00+00:00,0.0
2024-03-08 18:00:00+00:00,0.0
2024-03-08 19:00:00+00:00,0.0
2024-03-08 20:00:00+00:00,0.0
2024-03-11 13:00:00+00:00,0.0
2024-03-11 14:00:00+00:00,0.0
2024-03-11 15:00:00+00:00,0.0
2024-03-11 16:00:00+00:00,0.0
2024-03-11 17:00:00+00:00,0.0
2024-03-11 18:00:00+00:00,0.0
2024-03-11 19:00:00+00:00,0.0
2024-03-12 13:00:00+00:00,0.0
2024-03-12 14:00:00+00:00,0.0
2024-03-12 15:00:00+00:00,0.0
2024-03-12 16:00:00+00:00,0.0
2024-03-12 17:00:00+00:00,0.0
2024-03-12 18:00:00+00:00,0.0
2024-03-12 19:00:00+00:00,0.0
2024-03-13 13:00:00+00:00,0.0
2024-03-13 14:00:00+00:00,0.0
2024-03-13 15:00:00+00:00,0.0
2024-03-13 16:00:00+00:00,0.0
2024-03-13 17:00:00+00:00,0.0
2024-03-13 18:00:00+00:00,0.0
2024-03-13 19:00:00+00:00,0.0
2024-03-14 13:00:00+00:00,0.0
2024-03-14 14:00:00+00:00,0.0
2024-03-14 15:00:00+00:00,0.0
2024-03-14 16:00:00+00:00,0.0
2024-03-14 17:00:00+00:00,0.0
2024-03-14 18:00:00+00:00,0.0
2024-03-14 19:00:00+00:00,0.0
2024-03-15 13:00:00+00:00,0.0
2024-03-15 14:00:00+00:00,0.0
2024-03-15 15:00:00+00:00,0.0
2024-03-15 16:00:00+00:00,0.0
2024-03-15 17:00:00+00:00,0.0
2024-03-15 18:00:00+00:00,0.0
2024-03-15 19:00:00+00:00,0.0
2024-03-18 13:00:00+00:00,0.0
2024-03-18 14:00:00+00:00,0.0
2024-03-18 15:00:00+00:00,0.0
2024-03-18 16:00:00+00:00,0.0
2024-03-18 17:00:00+00:00,0.0
2024-03-18 18:00:00+00:00,0.0
2024-03-18 19:00:00+00:00,0.0
2024-03-19 13:00:00+00:00,0.0
2024-03-19 14:00:00+00:00,0.0
2024-03-19 15:00:00+00:00,0.0
2024-03-19 16:00:00+00:00,0.0
2024-03-19 17:00:00+00:00,0.0
2024-03-19 18:00:00+00:00,0.0
2024-03-19 19:00:00+00:00,0.0
2024-03-20 13:00:00+00:00,0.0
2024-03-20 14:00:00+00:00,0.0
2024-03-20 15:00:00+00:00,0.0
2024-03-20 16:00:00+00:00,0.0
2024-03-20 17:00:00+00:00,0.0
2024-03-20 18:00:00+00:00,0.0
2024-03-20 19:00:00+00:00,0.0
2024-03-21 13:00:00+00:00,0.0
2024-03-21 14:00:00+00:00,0.0
2024-03-21 15:00:00+00:00,0.0
2024-03-21 16:00:00+00:00,0.0
2024-03-21 17:00:00+00:00,0.0
2024-03-21 18:00:00+00:00,0.0
2024-03-21 19:00:00+00:00,0.0
2024-03-22 13:00:00+00:00,0.0
2024-03-22 14:00:00+00:00,0.0
2024-03-22 15:00:00+00:00,0.0
2024-03-22 16:00:00+00:00,0.0
2024-03-22 17:00:00+00:00,0.0
2024-03-22 18:00:00+00:00,0.0
2024-03-22 19:00:00+00:00,0.0
2024-03-25 13:00:00+00:00,0.0
2024-03-25 14:00:00+00:00,0.0
2024-03-25 15:00:00+00:00,0.0
2024-03-25 16:00:00+00:00,0.0
2024-03-25 17:00:00+00:00,0.0
2024-03-25 18:00:00+00:00,0.0
2024-03-25 19:00:00+00:00,0.0
2024-03-26 13:00:00+00:00,0.0
2024-03-26 14:00:00+00:00,0.0
2024-03-26 15:00:00+00:00,0.0
2024-03-26 16:00:00+00:00,0.0
2024-03-26 17:00:00+00:00,0.0
2024-03-26 18:00:00+00:00,0.0
2024-03-26 19:00:00+00:00,0.0
2024-03-27 13:00:00+00:00,0.0
2024-03-27 14:00:00+00:00,0.0
2024-03-27 15:00:00+00:00,0.0
2024-03-27 16:00:00+00:00,0.0
2024-03-27 17:00:00+00:00,0.0
2024-03-27 18:00:00+00:00,0.0
2024-03-27 19:00:00+00:00,0.0
2024-03-28 13:00:00+00:00,0.0
2024-03-28 14:00:00+00:00,0.0
2024-03-28 15:00:00+00:00,0.0
2024-03-28 16:00:00+00:00,0.0
2024-03-28 17:00:00+00:00,0.0
2024-03-28 18:00:00+00:00,0.0
2024-03-28 19:00:00+00:00,0.0
2024-04-01 13:00:00+00:00,0.0
2024-04-01 14:00:00+00:00,0.0
2024-04-01 15:00:00+00:00,0.0
2024-04-01 16:00:00+00:00,0.0
2024-04-01 17:00:00+00:00,0.0
2024-04-01 18:00:00+00:00,0.0
2024-04-01 19:00:00+00:00,0.0
2024-04-02 13:00:00+00:00,0.0
2024-04-02 14:00:00+00:00,0.0
2024-04-02 15:00:00+00:00,0.0
2024-04-02 16:00:00+00:00,0.0
2024-04-02 17:00:00+00:00,0.0
2024-04-02 18:00:00+00:00,0.0
2024-04-02 19:00:00+00:00,0.0
2024-04-03 13:00:00+00:00,0.0
2024-04-03 14:00:00+00:00,0.0
2024-04-03 15:00:00+00:00,0.0
2024-04-03 16:00:00+00:00,0.0
2024-04-03 17:00:00+00:00,0.0
2024-04-03 18:00:00+00:00,0.0
2024-04-03 19:00:00+00:00,0.0
2024-04-04 13:00:00+00:00,0.0
2024-04-04 14:00:00+00:00,0.0
2024-04-04 15:00:00+00:00,0.0
2024-04-04 16:00:00+00:00,0.0
2024-04-04 17:00:00+00:00,0.0
2024-04-04 18:00:00+00:00,0.0
2024-04-04 19:00:00+00:00,0.0
2024-04-05 13:00:00+00:00,0.0
2024-04-05 14:00:00+00:00,0.0
2024-04-05 15:00:00+00:00,0.0
2024-04-05 16:00:00+00:00,0.0
2024-04-05 17:00:00+00:00,0.0
2024-04-05 18:00:00+00:00,0.0
2024-04-05 19:00:00+00:00,0.0
2024-04-08 13:00:00+00:00,0.0
2024-04-08 14:00:00+00:00,0.0
2024-04-08 15:00:00+00:00,0.0
2024-04-08 16:00:00+00:00,0.0
2024-04-08 17:00:00+00:00,0.0
2024-04-08 18:00:00+00:00,0.0
2024-04-08 19:00:00+00:00,0.0
2024-04-09 13:00:00+00:00,0.0
2024-04-09 14:00:00+00:00,0.0
2024-04-09 15:00:00+00:00,0.0
2024-04-09 16:00:00+00:00,0.0
2024-04-09 17:00:00+00:00,0.0
2024-04-09 18:00:00+00:00,0.0
2024-04-09 19:00:00+00:00,0.0
2024-04-10 13:00:00+00:00,0.0
2024-04-10 14:00:00+00:00,0.0
2024-04-10 15:00:00+00:00,0.0
2024-04-10 16:00:00+00:00,0.0
2024-04-10 17:00:00+00:00,0.0
2024-04-10 18:00:00+00:00,0.0
2024-04-10 19:00:00+00:00,0.0
2024-04-11 13:00:00+00:00,0.0
2024-04-11 14:00:00+00:00,0.0
2024-04-11 15:00:00+00:00,0.0
2024-04-11 16:00:00+00:00,0.0
2024-04-11 17:00:00+00:00,0.0
2024-04-11 18:00:00+00:00,0.0
2024-04-11 19:00:00+00:00,0.0
2024-04-12 13:00:00+00:00,0.0
2024-04-12 14:00:00+00:00,0.0
2024-04-12 15:00:00+00:00,0.0
2024-04-12 16:00:00+00:00,0.0
2024-04-12 17:00:00+00:00,0.0
2024-04-12 18:00:00+00:00,0.0
2024-04-12 19:00:00+00:00,0.0
2024-04-15 13:00:00+00:00,0.0
2024-04-15 14:00:00+00:00,0.0
2024-04-15 15:00:00+00:00,0.0
2024-04-15 16:00:00+00:00,0.0
2024-04-15 17:00:00+00:00,0.0
2024-04-15 18:00:00+00:00,0.0
2024-04-15 19:00:00+00:00,0.0
2024-04-16 13:00:00+00:00,0.0
2024-04-16 14:00:00+00:00,0.0
2024-04-16 15:00:00+00:00,0.0
2024-04-16 16:00:00+00:00,0.0
2024-04-16 17:00:00+00:00,0.0
2024-04-16 18:00:00+00:00,0.0
2024-04-16 19:00:00+00:00,0.0
2024-04-17 13:00:00+00:00,0.0
2024-04-17 14:00:00+00:00,0.0
2024-04-17 15:00:00+00:00,0.0
2024-04-17 16:00:00+00:00,0.0
2024-04-17 17:00:00+00:00,0.0
2024-04-17 18:00:00+00:00,0.0
2024-04-17 19:00:00+00:00,0.0
2024-04-18 13:00:00+00:00,0.0
2024-04-18 14:00:00+00:00,0.0
2024-04-18 15:00:00+00:00,0.0
2024-04-18 16:00:00+00:00,0.0
2024-04-18 17:00:00+00:00,0.0
2024-04-18 18:00:00+00:00,0.0
2024-04-18 19:00:00+00:00,0.0
2024-04-19 13:00:00+00:00,0.0
2024-04-19 14:00:00+00:00,0.0
2024-04-19 15:00:00+00:00,0.0
2024-04-19 16:00:00+00:00,0.0
2024-04-19 17:00:00+00:00,0.0
2024-04-19 18:00:00+00:00,0.0
2024-04-19 19:00:00+00:00,0.0
2024-04-22 13:00:00+00:00,0.0
2024-04-22 14:00:00+00:00,0.0
2024-04-22 15:00:00+00:00,0.0
2024-04-22 16:00:00+00:00,0.0
2024-04-22 17:00:00+00:00,0.0
2024-04-22 18:00:00+00:00,0.0
2024-04-22 19:00:00+00:00,0.0
2024-04-23 13:00:00+00:00,0.0
2024-04-23 14:00:00+00:00,0.0
2024-04-23 15:00:00+00:00,0.0
2024-04-23 16:00:00+00:00,0.0
2024-04-23 17:00:00+00:00,0.0
2024-04-23 18:00:00+00:00,0.0
2024-04-23 19:00:00+00:00,0.0
2024-04-24 13:00:00+00:00,0.0
2024-04-24 14:00:00+00:00,0.0
2024-04-24 15:00:00+00:00,0.0
2024-04-24 16:00:00+00:00,0.0
2024-04-24 17:00:00+00:00,0.0
2024-04-24 18:00:00+00:00,0.0
2024-04-24 19:00:00+00:00,0.0
2024-04-25 13:00:00+00:00,0.0
2024-04-25 14:00:00+00:00,0.0
2024-04-25 15:00:00+00:00,0.0
2024-04-25 16:00:00+00:00,0.0
2024-04-25 17:00:00+00:00,0.0
2024-04-25 18:00:00+00:00,0.0
2024-04-25 19:00:00+00:00,0.0
2024-04-26 13:00:00+00:00,0.0
2024-04-26 14:00:00+00:00,0.0
2024-04-26 15:00:00+00:00,0.0
2024-04-26 16:00:00+00:00,0.0
2024-04-26 17:00:00+00:00,0.0
2024-04-26 18:00:00+00:00,0.0
2024-04-26 19:00:00+00:00,0.0
2024-04-29 13:00:00+00:00,0.0
2024-04-29 14:00:00+00:00,0.0
2024-04-29 15:00:00+00:00,0.0
2024-04-29 16:00:00+00:00,0.0
2024-04-29 17:00:00+00:00,0.0
2024-04-29 18:00:00+00:00,0.0
2024-04-29 19:00:00+00:00,0.0
2024-04-30 13:00:00+00:00,0.0
2024-04-30 14:00:00+00:00,0.0
2024-04-30 15:00:00+00:00,0.0
2024-04-30 16:00:00+00:00,0.0
2024-04-30 17:00:00+00:00,0.0
2024-04-30 18:00:00+00:00,0.0
2024-04-30 19:00:00+00:00,0.0
2024-05-01 13:00:00+00:00,0.0
2024-05-01 14:00:00+00:00,0.0
2024-05-01 15:00:00+00:00,0.0
2024-05-01 16:00:00+00:00,0.0
2024-05-01 17:00:00+00:00,0.0
2024-05-01 18:00:00+00:00,0.0
2024-05-01 19:00:00+00:00,0.0
2024-05-02 13:00:00+00:00,0.0
2024-05-02 14:00:00+00:00,0.0
2024-05-02 15:00:00+00:00,0.0
2024-05-02 16:00:00+00:00,0.0
2024-05-02 17:00:00+00:00,0.0
2024-05-02 18:00:00+00:00,0.0
2024-05-02 19:00:00+00:00,0.0
2024-05-03 13:00:00+00:00,0.0
2024-05-03 14:00:00+00:00,0.0
2024-05-03 15:00:00+00:00,0.0
2024-05-03 16:00:00+00:00,0.0
2024-05-03 17:00:00+00:00,0.0
2024-05-03 18:00:00+00:00,0.0
2024-05-03 19:00:00+00:00,0.0
2024-05-06 13:00:00+00:00,0.0
2024-05-06 14:00:00+00:00,0.0
2024-05-06 15:00:00+00:00,0.0
2024-05-06 16:00:00+00:00,0.0
2024-05-06 17:00:00+00:00,0.0
2024-05-06 18:00:00+00:00,0.0
2024-05-06 19:00:00+00:00,0.0
2024-05-07 13:00:00+00:00,0.0
2024-05-07 14:00:00+00:00,0.0
2024-05-07 15:00:00+00:00,0.0
2024-05-07 16:00:00+00:00,0.0
2024-05-07 17:00:00+00:00,0.0
2024-05-07 18:00:00+00:00,0.0
2024-05-07 19:00:00+00:00,0.0
2024-05-08 13:00:00+00:00,0.0
2024-05-08 14:00:00+00:00,0.0
2024-05-08 15:00:00+00:00,0.0
2024-05-08 16:00:00+00:00,0.0
2024-05-08 17:00:00+00:00,0.0
2024-05-08 18:00:00+00:00,0.0
2024-05-08 19:00:00+00:00,0.0
2024-05-09 13:00:00+00:00,0.0
2024-05-09 14:00:00+00:00,0.0
2024-05-09 15:00:00+00:00,0.0
2024-05-09 16:00:00+00:00,0.0
2024-05-09 17:00:00+00:00,0.0
2024-05-09 18:00:00+00:00,0.0
2024-05-09 19:00:00+00:00,0.0
2024-05-10 13:00:00+00:00,0.0
2024-05-10 14:00:00+00:00,0.0
2024-05-10 15:00:00+00:00,0.0
2024-05-10 16:00:00+00:00,0.0
2024-05-10 17:00:00+00:00,0.0
2024-05-10 18:00:00+00:00,0.0
2024-05-10 19:00:00+00:00,0.0
2024-05-13 13:00:00+00:00,0.0
2024-05-13 14:00:00+00:00,0.0
2024-05-13 15:00:00+00:00,0.0
2024-05-13 16:00:00+00:00,0.0
2024-05-13 17:00:00+00:00,0.0
2024-05-13 18:00:00+00:00,0.0
2024-05-13 19:00:00+00:00,0.0
2024-05-14 13:00:00+00:00,0.0
2024-05-14 14:00:00+00:00,0.0
2024-05-14 15:00:00+00:00,0.0
2024-05-14 16:00:00+00:00,0.0
2024-05-14 17:00:00+00:00,0.0
2024-05-14 18:00:00+00:00,0.0
2024-05-14 19:00:00+00:00,0.0
2024-05-15 13:00:00+00:00,0.0
2024-05-15 14:00:00+00:00,0.0
2024-05-15 15:00:00+00:00,0.0
2024-05-15 16:00:00+00:00,0.0
2024-05-15 17:00:00+00:00,0.0
2024-05-15 18:00:00+00:00,0.0
2024-05-15 19:00:00+00:00,0.0
2024-05-16 13:00:00+00:00,0.0
2024-05-16 14:00:00+00:00,0.0
2024-05-16 15:00:00+00:00,0.0
2024-05-16 16:00:00+00:00,0.0
2024-05-16 17:00:00+00:00,0.0
2024-05-16 18:00:00+00:00,0.0
2024-05-16 19:00:00+00:00,0.0
2024-05-17 13:00:00+00:00,0.0
2024-05-17 14:00:00+00:00,0.0
2024-05-17 15:00:00+00:00,0.0
2024-05-17 16:00:00+00:00,0.0
2024-05-17 17:00:00+00:00,0.0
2024-05-17 18:00:00+00:00,0.0
2024-05-17 19:00:00+00:00,0.0
2024-05-20 13:00:00+00:00,0.0
2024-05-20 14:00:00+00:00,0.0
2024-05-20 15:00:00+00:00,0.0
2024-05-20 16:00:00+00:00,0.0
2024-05-20 17:00:00+00:00,0.0
2024-05-20 18:00:00+00:00,0.0
2024-05-20 19:00:00+00:00,0.0
2024-05-21 13:00:00+00:00,0.0
2024-05-21 14:00:00+00:00,0.0
2024-05-21 15:00:00+00:00,0.0
2024-05-21 16:00:00+00:00,0.0
2024-05-21 17:00:00+00:00,0.0
2024-05-21 18:00:00+00:00,0.0
2024-05-21 19:00:00+00:00,0.0
2024-05-22 13:00:00+00:00,0.0
2024-05-22 14:00:00+00:00,0.0
2024-05-22 15:00:00+00:00,0.0
2024-05-22 16:00:00+00:00,0.0
2024-05-22 17:00:00+00:00,0.0
2024-05-22 18:00:00+00:00,0.0
2024-05-22 19:00:00+00:00,0.0
2024-05-23 13:00:00+00:00,0.0
2024-05-23 14:00:00+00:00,0.0
2024-05-23 15:00:00+00:00,0.0
2024-05-23 16:00:00+00:00,0.0
2024-05-23 17:00:00+00:00,0.0
2024-05-23 18:00:00+00:00,0.0
2024-05-23 19:00:00+00:00,0.0
2024-05-24 13:00:00+00:00,0.0
2024-05-24 14:00:00+00:00,0.0
2024-05-24 15:00:00+00:00,0.0
2024-05-24 16:00:00+00:00,0.0
2024-05-24 17:00:00+00:00,0.0
2024-05-24 18:00:00+00:00,0.0
2024-05-24 19:00:00+00:00,0.0
2024-05-28 13:00:00+00:00,0.0
2024-05-28 14:00:00+00:00,0.0
2024-05-28 15:00:00+00:00,0.0
2024-05-28 16:00:00+00:00,0.0
2024-05-28 17:00:00+00:00,0.0
2024-05-28 18:00:00+00:00,0.0
2024-05-28 19:00:00+00:00,0.0
2024-05-29 13:00:00+00:00,0.0
2024-05-29 14:00:00+00:00,0.0
2024-05-29 15:00:00+00:00,0.0
2024-05-29 16:00:00+00:00,0.0
2024-05-29 17:00:00+00:00,0.0
2024-05-29 18:00:00+00:00,0.0
2024-05-29 19:00:00+00:00,0.0
2024-05-30 13:00:00+00:00,0.0
2024-05-30 14:00:00+00:00,0.0
2024-05-30 15:00:00+00:00,0.0
2024-05-30 16:00:00+00:00,0.0
2024-05-30 17:00:00+00:00,0.0
2024-05-30 18:00:00+00:00,0.0
2024-05-30 19:00:00+00:00,0.0
2024-05-31 13:00:00+00:00,0.0
2024-05-31 14:00:00+00:00,0.0
2024-05-31 15:00:00+00:00,0.0
2024-05-31 16:00:00+00:00,0.0
2024-05-31 17:00:00+00:00,0.0
2024-05-31 18:00:00+00:00,0.0
2024-05-31 19:00:00+00:00,0.0
2024-06-03 13:00:00+00:00,0.0
2024-06-03 14:00:00+00:00,0.0
2024-06-03 15:00:00+00:00,0.0
2024-06-03 16:00:00+00:00,0.0
2024-06-03 17:00:00+00:00,0.0
2024-06-03 18:00:00+00:00,0.0
2024-06-03 19:00:00+00:00,0.0
2024-06-04 13:00:00+00:00,0.0
2024-06-04 14:00:00+00:00,0.0
2024-06-04 15:00:00+00:00,0.0
2024-06-04 16:00:00+00:00,0.0
2024-06-04 17:00:00+00:00,0.0
2024-06-04 18:00:00+00:00,0.0
2024-06-04 19:00:00+00:00,0.0
2024-06-05 13:00:00+00:00,0.0
2024-06-05 14:00:00+00:00,0.0
2024-06-05 15:00:00+00:00,0.0
2024-06-05 16:00:00+00:00,0.0
2024-06-05 17:00:00+00:00,0.0
2024-06-05 18:00:00+00:00,0.0
2024-06-05 19:00:00+00:00,0.0
2024-06-06 13:00:00+00:00,0.0
2024-06-06 14:00:00+00:00,0.0
2024-06-06 15:00:00+00:00,0.0
2024-06-06 16:00:00+00:00,0.0
2024-06-06 17:00:00+00:00,0.0
2024-06-06 18:00:00+00:00,0.0
2024-06-06 19:00:00+00:00,0.0
2024-06-07 13:00:00+00:00,0.0
2024-06-07 14:00:00+00:00,0.0
2024-06-07 15:00:00+00:00,0.0
2024-06-07 16:00:00+00:00,0.0
2024-06-07 17:00:00+00:00,0.0
2024-06-07 18:00:00+00:00,0.0
2024-06-07 19:00:00+00:00,0.0
2024-06-10 13:00:00+00:00,0.0
2024-06-10 14:00:00+00:00,0.0
2024-06-10 15:00:00+00:00,0.0
2024-06-10 16:00:00+00:00,0.0
2024-06-10 17:00:00+00:00,0.0
2024-06-10 18:00:00+00:00,0.0
2024-06-10 19:00:00+00:00,0.0
2024-06-11 13:00:00+00:00,0.0
2024-06-11 14:00:00+00:00,0.0
2024-06-11 15:00:00+00:00,0.0
2024-06-11 16:00:00+00:00,0.0
2024-06-11 17:00:00+00:00,0.0
2024-06-11 18:00:00+00:00,0.0
2024-06-11 19:00:00+00:00,0.0
2024-06-12 13:00:00+00:00,0.0
2024-06-12 14:00:00+00:00,0.0
2024-06-12 15:00:00+00:00,0.0
2024-06-12 16:00:00+00:00,0.0
2024-06-12 17:00:00+00:00,0.0
2024-06-12 18:00:00+00:00,0.0
2024-06-12 19:00:00+00:00,0.0
2024-06-13 13:00:00+00:00,0.0
2024-06-13 14:00:00+00:00,0.0
2024-06-13 15:00:00+00:00,0.0
2024-06-13 16:00:00+00:00,0.0
2024-06-13 17:00:00+00:00,0.0
2024-06-13 18:00:00+00:00,0.0
2024-06-13 19:00:00+00:00,0.0
2024-06-14 13:00:00+00:00,0.0
2024-06-14 14:00:00+00:00,0.0
2024-06-14 15:00:00+00:00,0.0
2024-06-14 16:00:00+00:00,0.0
2024-06-14 17:00:00+00:00,0.0
2024-06-14 18:00:00+00:00,0.0
2024-06-14 19:00:00+00:00,0.0
2024-06-17 13:00:00+00:00,0.0
2024-06-17 14:00:00+00:00,0.0
2024-06-17 15:00:00+00:00,0.0
2024-06-17 16:00:00+00:00,0.0
2024-06-17 17:00:00+00:00,0.0
2024-06-17 18:00:00+00:00,0.0
2024-06-17 19:00:00+00:00,0.0
2024-06-18 13:00:00+00:00,0.0
2024-06-18 14:00:00+00:00,0.0
2024-06-18 15:00:00+00:00,0.0
2024-06-18 16:00:00+00:00,0.0
2024-06-18 17:00:00+00:00,0.0
2024-06-18 18:00:00+00:00,0.0
2024-06-18 19:00:00+00:00,0.0
2024-06-20 13:00:00+00:00,0.0
2024-06-20 14:00:00+00:00,0.0
2024-06-20 15:00:00+00:00,0.0
2024-06-20 16:00:00+00:00,0.0
2024-06-20 17:00:00+00:00,0.0
2024-06-20 18:00:00+00:00,0.0
2024-06-20 19:00:00+00:00,0.0
2024-06-21 13:00:00+00:00,0.0
2024-06-21 14:00:00+00:00,0.0
2024-06-21 15:00:00+00:00,0.0
2024-06-21 16:00:00+00:00,0.0
2024-06-21 17:00:00+00:00,0.0
2024-06-21 18:00:00+00:00,0.0
2024-06-21 19:00:00+00:00,0.0
2024-06-24 13:00:00+00:00,0.0
2024-06-24 14:00:00+00:00,0.0
2024-06-24 15:00:00+00:00,0.0
2024-06-24 16:00:00+00:00,0.0
2024-06-24 17:00:00+00:00,0.0
2024-06-24 18:00:00+00:00,0.0
2024-06-24 19:00:00+00:00,0.0
2024-06-25 13:00:00+00:00,0.0
2024-06-25 14:00:00+00:00,0.0
2024-06-25 15:00:00+00:00,0.0
2024-06-25 16:00:00+00:00,0.0
2024-06-25 17:00:00+00:00,0.0
2024-06-25 18:00:00+00:00,0.0
2024-06-25 19:00:00+00:00,0.0
2024-06-26 13:00:00+00:00,0.0
2024-06-26 14:00:00+00:00,0.0
2024-06-26 15:00:00+00:00,0.0
2024-06-26 16:00:00+00:00,0.0
2024-06-26 17:00:00+00:00,0.0
2024-06-26 18:00:00+00:00,0.0
2024-06-26 19:00:00+00:00,0.0
2024-06-27 13:00:00+00:00,0.0
2024-06-27 14:00:00+00:00,0.0
2024-06-27 15:00:00+00:00,0.0
2024-06-27 16:00:00+00:00,0.0
2024-06-27 17:00:00+00:00,0.0
2024-06-27 18:00:00+00:00,0.0
2024-06-27 19:00:00+00:00,0.0
2024-06-28 13:00:00+00:00,0.0
2024-06-28 14:00:00+00:00,0.0
2024-06-28 15:00:00+00:00,0.0
2024-06-28 16:00:00+00:00,0.0
2024-06-28 17:00:00+00:00,0.0
2024-06-28 18:00:00+00:00,0.0
2024-06-28 19:00:00+00:00,0.0
2024-07-01 13:00:00+00:00,0.0
2024-07-01 14:00:00+00:00,0.0
2024-07-01 15:00:00+00:00,0.0
2024-07-01 16:00:00+00:00,0.0
2024-07-01 17:00:00+00:00,0.0
2024-07-01 18:00:00+00:00,0.0
2024-07-01 19:00:00+00:00,0.0
2024-07-02 13:00:00+00:00,0.0
2024-07-02 14:00:00+00:00,0.0
2024-07-02 15:00:00+00:00,0.0
2024-07-02 16:00:00+00:00,0.0
2024-07-02 17:00:00+00:00,0.0
2024-07-02 18:00:00+00:00,0.0
2024-07-02 19:00:00+00:00,0.0
2024-07-03 13:00:00+00:00,0.0
2024-07-03 14:00:00+00:00,0.0
2024-07-03 15:00:00+00:00,0.0
2024-07-05 13:00:00+00:00,0.0
2024-07-05 14:00:00+00:00,0.0
2024-07-05 15:00:00+00:00,0.0
2024-07-05 16:00:00+00:00,0.0
2024-07-05 17:00:00+00:00,0.0
2024-07-05 18:00:00+00:00,0.0
2024-07-05 19:00:00+00:00,0.0
2024-07-08 13:00:00+00:00,0.0
2024-07-08 14:00:00+00:00,0.0
2024-07-08 15:00:00+00:00,0.0
2024-07-08 16:00:00+00:00,0.0
2024-07-08 17:00:00+00:00,0.0
2024-07-08 18:00:00+00:00,0.0
2024-07-08 19:00:00+00:00,0.0
2024-07-09 13:00:00+00:00,0.0
2024-07-09 14:00:00+00:00,0.0
2024-07-09 15:00:00+00:00,0.0
2024-07-09 16:00:00+00:00,0.0
2024-07-09 17:00:00+00:00,0.0
2024-07-09 18:00:00+00:00,0.0
2024-07-09 19:00:00+00:00,0.0
2024-07-10 13:00:00+00:00,0.0
2024-07-10 14:00:00+00:00,0.0
2024-07-10 15:00:00+00:00,0.0
2024-07-10 16:00:00+00:00,0.0
2024-07-10 17:00:00+00:00,0.0
2024-07-10 18:00:00+00:00,0.0
2024-07-10 19:00:00+00:00,0.0
2024-07-11 13:00:00+00:00,0.0
2024-07-11 14:00:00+00:00,0.0
2024-07-11 15:00:00+00:00,0.0
2024-07-11 16:00:00+00:00,0.0
2024-07-11 17:00:00+00:00,0.0
2024-07-11 18:00:00+00:00,0.0
2024-07-11 19:00:00+00:00,0.0
2024-07-12 13:00:00+00:00,0.0
2024-07-12 14:00:00+00:00,0.0
2024-07-12 15:00:00+00:00,0.0
2024-07-12 16:00:00+00:00,0.0
2024-07-12 17:00:00+00:00,0.0
2024-07-12 18:00:00+00:00,0.0
2024-07-12 19:00:00+00:00,0.0
2024-07-15 13:00:00+00:00,0.0
2024-07-15 14:00:00+00:00,0.0
2024-07-15 15:00:00+00:00,0.0
2024-07-15 16:00:00+00:00,0.0
2024-07-15 17:00:00+00:00,0.0
2024-07-15 18:00:00+00:00,0.0
2024-07-15 19:00:00+00:00,0.0
2024-07-16 13:00:00+00:00,0.0
2024-07-16 14:00:00+00:00,0.0
2024-07-16 15:00:00+00:00,0.0
2024-07-16 16:00:00+00:00,0.0
2024-07-16 17:00:00+00:00,0.0
2024-07-16 18:00:00+00:00,0.0
2024-07-16 19:00:00+00:00,0.0
2024-07-17 13:00:00+00:00,0.0
2024-07-17 14:00:00+00:00,0.0
2024-07-17 15:00:00+00:00,0.0
2024-07-17 16:00:00+00:00,0.0
2024-07-17 17:00:00+00:00,0.0
2024-07-17 18:00:00+00:00,0.0
2024-07-17 19:00:00+00:00,0.0
2024-07-18 13:00:00+00:00,0.0
2024-07-18 14:00:00+00:00,0.0
2024-07-18 15:00:00+00:00,0.0
2024-07-18 16:00:00+00:00,0.0
2024-07-18 17:00:00+00:00,0.0
2024-07-18 18:00:00+00:00,0.0
2024-07-18 19:00:00+00:00,0.0
2024-07-19 13:00:00+00:00,0.0
2024-07-19 14:00:00+00:00,0.0
2024-07-19 15:00:00+00:00,0.0
2024-07-19 16:00:00+00:00,0.0
2024-07-19 17:00:00+00:00,0.0
2024-07-19 18:00:00+00:00,0.0
2024-07-19 19:00:00+00:00,0.0
2024-07-22 13:00:00+00:00,0.0
2024-07-22 14:00:00+00:00,0.0
2024-07-22 15:00:00+00:00,0.0
2024-07-22 16:00:00+00:00,0.0
2024-07-22 17:00:00+00:00,0.0
2024-07-22 18:00:00+00:00,0.0
2024-07-22 19:00:00+00:00,0.0
2024-07-23 13:00:00+00:00,0.0
2024-07-23 14:00:00+00:00,0.0
2024-07-23 15:00:00+00:00,0.0
2024-07-23 16:00:00+00:00,0.0
2024-07-23 17:00:00+00:00,0.0
2024-07-23 18:00:00+00:00,0.0
2024-07-23 19:00:00+00:00,0.0
2024-07-24 13:00:00+00:00,0.0
2024-07-24 14:00:00+00:00,0.0
2024-07-24 15:00:00+00:00,0.0
2024-07-24 16:00:00+00:00,0.0
2024-07-24 17:00:00+00:00,0.0
2024-07-24 18:00:00+00:00,0.0
2024-07-24 19:00:00+00:00,0.0
2024-07-25 13:00:00+00:00,0.0
2024-07-25 14:00:00+00:00,0.0
2024-07-25 15:00:00+00:00,0.0
2024-07-25 16:00:00+00:00,0.0
2024-07-25 17:00:00+00:00,0.0
2024-07-25 18:00:00+00:00,0.0
2024-07-25 19:00:00+00:00,0.0
2024-07-26 13:00:00+00:00,0.0
2024-07-26 14:00:00+00:00,0.0
2024-07-26 15:00:00+00:00,0.0
2024-07-26 16:00:00+00:00,0.0
2024-07-26 17:00:00+00:00,0.0
2024-07-26 18:00:00+00:00,0.0
2024-07-26 19:00:00+00:00,0.0
2024-07-29 13:00:00+00:00,0.0
2024-07-29 14:00:00+00:00,0.0
2024-07-29 15:00:00+00:00,0.0
2024-07-29 16:00:00+00:00,0.0
2024-07-29 17:00:00+00:00,0.0
2024-07-29 18:00:00+00:00,0.0
2024-07-29 19:00:00+00:00,0.0
2024-07-30 13:00:00+00:00,0.0
2024-07-30 14:00:00+00:00,0.0
2024-07-30 15:00:00+00:00,0.0
2024-07-30 16:00:00+00:00,0.0
2024-07-30 17:00:00+00:00,0.0
2024-07-30 18:00:00+00:00,0.0
2024-07-30 19:00:00+00:00,0.0
2024-07-31 13:00:00+00:00,0.0
2024-07-31 14:00:00+00:00,0.0
2024-07-31 15:00:00+00:00,0.0
2024-07-31 16:00:00+00:00,0.0
2024-07-31 17:00:00+00:00,0.0
2024-07-31 18:00:00+00:00,0.0
2024-07-31 19:00:00+00:00,0.0
2024-08-01 13:00:00+00:00,0.0
2024-08-01 14:00:00+00:00,0.0
2024-08-01 15:00:00+00:00,0.0
2024-08-01 16:00:00+00:00,0.0
2024-08-01 17:00:00+00:00,0.0
2024-08-01 18:00:00+00:00,0.0
2024-08-01 19:00:00+00:00,0.0
2024-08-02 13:00:00+00:00,0.0
2024-08-02 14:00:00+00:00,0.0
2024-08-02 15:00:00+00:00,0.0
2024-08-02 16:00:00+00:00,0.0
2024-08-02 17:00:00+00:00,0.0
2024-08-02 18:00:00+00:00,0.0
2024-08-02 19:00:00+00:00,0.0
2024-08-05 13:00:00+00:00,0.0
2024-08-05 14:00:00+00:00,0.0
2024-08-05 15:00:00+00:00,0.0
2024-08-05 16:00:00+00:00,0.0
2024-08-05 17:00:00+00:00,0.0
2024-08-05 18:00:00+00:00,0.0
2024-08-05 19:00:00+00:00,0.0
2024-08-06 13:00:00+00:00,0.0
2024-08-06 14:00:00+00:00,0.0
2024-08-06 15:00:00+00:00,0.0
2024-08-06 16:00:00+00:00,0.0
2024-08-06 17:00:00+00:00,0.0
2024-08-06 18:00:00+00:00,0.0
2024-08-06 19:00:00+00:00,0.0
2024-08-07 13:00:00+00:00,0.0
2024-08-07 14:00:00+00:00,0.0
2024-08-07 15:00:00+00:00,0.0
2024-08-07 16:00:00+00:00,0.0
2024-08-07 17:00:00+00:00,0.0
2024-08-07 18:00:00+00:00,0.0
2024-08-07 19:00:00+00:00,0.0
2024-08-08 13:00:00+00:00,0.0
2024-08-08 14:00:00+00:00,0.0
2024-08-08 15:00:00+00:00,0.0
2024-08-08 16:00:00+00:00,0.0
2024-08-08 17:00:00+00:00,0.0
2024-08-08 18:00:00+00:00,0.0
2024-08-08 19:00:00+00:00,0.0
2024-08-09 13:00:00+00:00,0.0
2024-08-09 14:00:00+00:00,0.0
2024-08-09 15:00:00+00:00,0.0
2024-08-09 16:00:00+00:00,0.0
2024-08-09 17:00:00+00:00,0.0
2024-08-09 18:00:00+00:00,0.0
2024-08-09 19:00:00+00:00,0.0
2024-08-12 13:00:00+00:00,0.0
2024-08-12 14:00:00+00:00,0.0
2024-08-12 15:00:00+00:00,0.0
2024-08-12 16:00:00+00:00,0.0
2024-08-12 17:00:00+00:00,0.0
2024-08-12 18:00:00+00:00,0.0
2024-08-12 19:00:00+00:00,0.0
2024-08-13 13:00:00+00:00,0.0
2024-08-13 14:00:00+00:00,0.0
2024-08-13 15:00:00+00:00,0.0
2024-08-13 16:00:00+00:00,0.0
2024-08-13 17:00:00+00:00,0.0
2024-08-13 18:00:00+00:00,0.0
2024-08-13 19:00:00+00:00,0.0
2024-08-14 13:00:00+00:00,0.0
2024-08-14 14:00:00+00:00,0.0
2024-08-14 15:00:00+00:00,0.0
2024-08-14 16:00:00+00:00,0.0
2024-08-14 17:00:00+00:00,0.0
2024-08-14 18:00:00+00:00,0.0
2024-08-14 19:00:00+00:00,0.0
2024-08-15 13:00:00+00:00,0.0
2024-08-15 14:00:00+00:00,0.0
2024-08-15 15:00:00+00:00,0.0
2024-08-15 16:00:00+00:00,0.0
2024-08-15 17:00:00+00:00,0.0
2024-08-15 18:00:00+00:00,0.0
2024-08-15 19:00:00+00:00,0.0
2024-08-16 13:00:00+00:00,0.0
2024-08-16 14:00:00+00:00,0.0
2024-08-16 15:00:00+00:00,0.0
2024-08-16 16:00:00+00:00,0.0
2024-08-16 17:00:00+00:00,0.0
2024-08-16 18:00:00+00:00,0.0
2024-08-16 19:00:00+00:00,0.0
2024-08-19 13:00:00+00:00,0.0
2024-08-19 14:00:00+00:00,0.0
2024-08-19 15:00:00+00:00,0.0
2024-08-19 16:00:00+00:00,0.0
2024-08-19 17:00:00+00:00,0.0
2024-08-19 18:00:00+00:00,0.0
2024-08-19 19:00:00+00:00,0.0
2024-08-20 13:00:00+00:00,0.0
2024-08-20 14:00:00+00:00,0.0
2024-08-20 15:00:00+00:00,0.0
2024-08-20 16:00:00+00:00,0.0
2024-08-20 17:00:00+00:00,0.0
2024-08-20 18:00:00+00:00,0.0
2024-08-20 19:00:00+00:00,0.0
2024-08-21 13:00:00+00:00,0.0
2024-08-21 14:00:00+00:00,0.0
2024-08-21 15:00:00+00:00,0.0
2024-08-21 16:00:00+00:00,0.0
2024-08-21 17:00:00+00:00,0.0
2024-08-21 18:00:00+00:00,0.0
2024-08-21 19:00:00+00:00,0.0
2024-08-22 13:00:00+00:00,0.0
2024-08-22 14:00:00+00:00,0.0
2024-08-22 15:00:00+00:00,0.0
2024-08-22 16:00:00+00:00,0.0
2024-08-22 17:00:00+00:00,0.0
2024-08-22 18:00:00+00:00,0.0
2024-08-22 19:00:00+00:00,0.0
2024-08-23 13:00:00+00:00,0.0
2024-08-23 14:00:00+00:00,0.0
2024-08-23 15:00:00+00:00,0.0
2024-08-23 16:00:00+00:00,0.0
2024-08-23 17:00:00+00:00,0.0
2024-08-23 18:00:00+00:00,0.0
2024-08-23 19:00:00+00:00,0.0
2024-08-26 13:00:00+00:00,0.0
2024-08-26 14:00:00+00:00,0.0
2024-08-26 15:00:00+00:00,0.0
2024-08-26 16:00:00+00:00,0.0
2024-08-26 17:00:00+00:00,0.0
2024-08-26 18:00:00+00:00,0.0
2024-08-26 19:00:00+00:00,0.0
2024-08-27 13:00:00+00:00,0.0
2024-08-27 14:00:00+00:00,0.0
2024-08-27 15:00:00+00:00,0.0
2024-08-27 16:00:00+00:00,0.0
2024-08-27 17:00:00+00:00,0.0
2024-08-27 18:00:00+00:00,0.0
2024-08-27 19:00:00+00:00,0.0
2024-08-28 13:00:00+00:00,0.0
2024-08-28 14:00:00+00:00,0.0
2024-08-28 15:00:00+00:00,0.0
2024-08-28 16:00:00+00:00,0.0
2024-08-28 17:00:00+00:00,0.0
2024-08-28 18:00:00+00:00,0.0
2024-08-28 19:00:00+00:00,0.0
2024-08-29 13:00:00+00:00,0.0
2024-08-29 14:00:00+00:00,0.0
2024-08-29 15:00:00+00:00,0.0
2024-08-29 16:00:00+00:00,0.0
2024-08-29 17:00:00+00:00,0.0
2024-08-29 18:00:00+00:00,0.0
2024-08-29 19:00:00+00:00,0.0
2024-08-30 13:00:00+00:00,0.0
2024-08-30 14:00:00+00:00,0.0
2024-08-30 15:00:00+00:00,0.0
2024-08-30 16:00:00+00:00,0.0
2024-08-30 17:00:00+00:00,0.0
2024-08-30 18:00:00+00:00,0.0
2024-08-30 19:00:00+00:00,0.0
2024-09-03 13:00:00+00:00,0.0
2024-09-03 14:00:00+00:00,0.0
2024-09-03 15:00:00+00:00,0.0
2024-09-03 16:00:00+00:00,0.0
2024-09-03 17:00:00+00:00,0.0
2024-09-03 18:00:00+00:00,0.0
2024-09-03 19:00:00+00:00,0.0
2024-09-04 13:00:00+00:00,0.0
2024-09-04 14:00:00+00:00,0.0
2024-09-04 15:00:00+00:00,0.0
2024-09-04 16:00:00+00:00,0.0
2024-09-04 17:00:00+00:00,0.0
2024-09-04 18:00:00+00:00,0.0
2024-09-04 19:00:00+00:00,0.0
2024-09-05 13:00:00+00:00,0.0
2024-09-05 14:00:00+00:00,0.0
2024-09-05 15:00:00+00:00,0.0
2024-09-05 16:00:00+00:00,0.0
2024-09-05 17:00:00+00:00,0.0
2024-09-05 18:00:00+00:00,0.0
2024-09-05 19:00:00+00:00,0.0
2024-09-06 13:00:00+00:00,0.0
2024-09-06 14:00:00+00:00,0.0
2024-09-06 15:00:00+00:00,0.0
2024-09-06 16:00:00+00:00,0.0
2024-09-06 17:00:00+00:00,0.0
2024-09-06 18:00:00+00:00,0.0
2024-09-06 19:00:00+00:00,0.0
2024-09-09 13:00:00+00:00,0.0
2024-09-09 14:00:00+00:00,0.0
2024-09-09 15:00:00+00:00,0.0
2024-09-09 16:00:00+00:00,0.0
2024-09-09 17:00:00+00:00,0.0
2024-09-09 18:00:00+00:00,0.0
2024-09-09 19:00:00+00:00,0.0
2024-09-10 13:00:00+00:00,0.0
2024-09-10 14:00:00+00:00,0.0
2024-09-10 15:00:00+00:00,0.0
2024-09-10 16:00:00+00:00,0.0
2024-09-10 17:00:00+00:00,0.0
2024-09-10 18:00:00+00:00,0.0
2024-09-10 19:00:00+00:00,0.0
2024-09-11 13:00:00+00:00,0.0
2024-09-11 14:00:00+00:00,0.0
2024-09-11 15:00:00+00:00,0.0
2024-09-11 16:00:00+00:00,0.0
2024-09-11 17:00:00+00:00,0.0
2024-09-11 18:00:00+00:00,0.0
2024-09-11 19:00:00+00:00,0.0
2024-09-12 13:00:00+00:00,0.0
2024-09-12 14:00:00+00:00,0.0
2024-09-12 15:00:00+00:00,0.0
2024-09-12 16:00:00+00:00,0.0
2024-09-12 17:00:00+00:00,0.0
2024-09-12 18:00:00+00:00,0.0
2024-09-12 19:00:00+00:00,0.0
2024-09-13 13:00:00+00:00,0.0
2024-09-13 14:00:00+00:00,0.0
2024-09-13 15:00:00+00:00,0.0
2024-09-13 16:00:00+00:00,0.0
2024-09-13 17:00:00+00:00,0.0
2024-09-13 18:00:00+00:00,0.0
2024-09-13 19:00:00+00:00,0.0
2024-09-16 13:00:00+00:00,0.0
2024-09-16 14:00:00+00:00,0.0
2024-09-16 15:00:00+00:00,0.0
2024-09-16 16:00:00+00:00,0.0
2024-09-16 17:00:00+00:00,0.0
2024-09-16 18:00:00+00:00,0.0
2024-09-16 19:00:00+00:00,0.0
2024-09-17 13:00:00+00:00,0.0
2024-09-17 14:00:00+00:00,0.0
2024-09-17 15:00:00+00:00,0.0
2024-09-17 16:00:00+00:00,0.0
2024-09-17 17:00:00+00:00,0.0
2024-09-17 18:00:00+00:00,0.0
2024-09-17 19:00:00+00:00,0.0
2024-09-18 13:00:00+00:00,0.0
2024-09-18 14:00:00+00:00,0.0
2024-09-18 15:00:00+00:00,0.0
2024-09-18 16:00:00+00:00,0.0
2024-09-18 17:00:00+00:00,0.0
2024-09-18 18:00:00+00:00,0.0
2024-09-18 19:00:00+00:00,0.0
2024-09-19 13:00:00+00:00,0.0
2024-09-19 14:00:00+00:00,0.0
2024-09-19 15:00:00+00:00,0.0
2024-09-19 16:00:00+00:00,0.0
2024-09-19 17:00:00+00:00,0.0
2024-09-19 18:00:00+00:00,0.0
2024-09-19 19:00:00+00:00,0.0
2024-09-20 13:00:00+00:00,0.0
2024-09-20 14:00:00+00:00,0.0
2024-09-20 15:00:00+00:00,0.0
2024-09-20 16:00:00+00:00,0.0
2024-09-20 17:00:00+00:00,0.0
2024-09-20 18:00:00+00:00,0.0
2024-09-20 19:00:00+00:00,0.0
2024-09-23 13:00:00+00:00,0.0
2024-09-23 14:00:00+00:00,0.0
2024-09-23 15:00:00+00:00,0.0
2024-09-23 16:00:00+00:00,0.0
2024-09-23 17:00:00+00:00,0.0
2024-09-23 18:00:00+00:00,0.0
2024-09-23 19:00:00+00:00,0.0
2024-09-24 13:00:00+00:00,0.0
2024-09-24 14:00:00+00:00,0.0
2024-09-24 15:00:00+00:00,0.0
2024-09-24 16:00:00+00:00,0.0
2024-09-24 17:00:00+00:00,0.0
2024-09-24 18:00:00+00:00,0.0
2024-09-24 19:00:00+00:00,0.0
2024-09-25 13:00:00+00:00,0.0
2024-09-25 14:00:00+00:00,0.0
2024-09-25 15:00:00+00:00,0.0
2024-09-25 16:00:00+00:00,0.0
2024-09-25 17:00:00+00:00,0.0
2024-09-25 18:00:00+00:00,0.0
2024-09-25 19:00:00+00:00,0.0
2024-09-26 13:00:00+00:00,0.0
2024-09-26 14:00:00+00:00,0.0
2024-09-26 15:00:00+00:00,0.0
2024-09-26 16:00:00+00:00,0.0
2024-09-26 17:00:00+00:00,0.0
2024-09-26 18:00:00+00:00,0.0
2024-09-26 19:00:00+00:00,0.0
2024-09-27 13:00:00+00:00,0.0
2024-09-27 14:00:00+00:00,0.0
2024-09-27 15:00:00+00:00,0.0
2024-09-27 16:00:00+00:00,0.0
2024-09-27 17:00:00+00:00,0.0
2024-09-27 18:00:00+00:00,0.0
2024-09-27 19:00:00+00:00,0.0
2024-09-30 13:00:00+00:00,0.0
2024-09-30 14:00:00+00:00,0.0
2024-09-30 15:00:00+00:00,0.0
2024-09-30 16:00:00+00:00,0.0
2024-09-30 17:00:00+00:00,0.0
2024-09-30 18:00:00+00:00,0.0
2024-09-30 19:00:00+00:00,0.0
2024-10-01 13:00:00+00:00,0.0
2024-10-01 14:00:00+00:00,0.0
2024-10-01 15:00:00+00:00,0.0
2024-10-01 16:00:00+00:00,0.0
2024-10-01 17:00:00+00:00,0.0
2024-10-01 18:00:00+00:00,0.0
2024-10-01 19:00:00+00:00,0.0
2024-10-02 13:00:00+00:00,0.0
2024-10-02 14:00:00+00:00,0.0
2024-10-02 15:00:00+00:00,0.0
2024-10-02 16:00:00+00:00,0.0
2024-10-02 17:00:00+00:00,0.0
2024-10-02 18:00:00+00:00,0.0
2024-10-02 19:00:00+00:00,0.0
2024-10-03 13:00:00+00:00,0.0
2024-10-03 14:00:00+00:00,0.0
2024-10-03 15:00:00+00:00,0.0
2024-10-03 16:00:00+00:00,0.0
2024-10-03 17:00:00+00:00,0.0
2024-10-03 18:00:00+00:00,0.0
2024-10-03 19:00:00+00:00,0.0
2024-10-04 13:00:00+00:00,0.0
2024-10-04 14:00:00+00:00,0.0
2024-10-04 15:00:00+00:00,0.0
2024-10-04 16:00:00+00:00,0.0
2024-10-04 17:00:00+00:00,0.0
2024-10-04 18:00:00+00:00,0.0
2024-10-04 19:00:00+00:00,0.0
2024-10-07 13:00:00+00:00,0.0
2024-10-07 14:00:00+00:00,0.0
2024-10-07 15:00:00+00:00,-15.525660304847094
2024-10-07 16:00:00+00:00,-9.116929315678572
2024-10-07 17:00:00+00:00,18.538963782899685
2024-10-07 18:00:00+00:00,0.5335406223624481
2024-10-07 19:00:00+00:00,46.2712355102222
2024-10-08 13:00:00+00:00,254.50803072546628
2024-10-08 14:00:00+00:00,257.2932013781276
2024-10-08 15:00:00+00:00,259.73325479788565
2024-10-08 16:00:00+00:00,226.24179540508055
2024-10-08 17:00:00+00:00,247.7173677845937
2024-10-08 18:00:00+00:00,235.0527232263818
2024-10-08 19:00:00+00:00,226.62232267989594
2024-10-09 13:00:00+00:00,250.19693471286163
2024-10-09 14:00:00+00:00,217.0106056723156
2024-10-09 15:00:00+00:00,211.2117939342538
2024-10-09 16:00:00+00:00,205.87101533192873
2024-10-09 17:00:00+00:00,202.1326610435645
2024-10-09 18:00:00+00:00,183.78442166984803
2024-10-09 19:00:00+00:00,195.03731592185014
2024-10-10 13:00:00+00:00,161.69985158278
2024-10-10 14:00:00+00:00,191.58288887998472
2024-10-10 15:00:00+00:00,159.44881524988816
2024-10-10 16:00:00+00:00,159.7537748754415
2024-10-10 17:00:00+00:00,137.78150179308378
2024-10-10 18:00:00+00:00,138.50618979533073
2024-10-10 19:00:00+00:00,133.43218638478857
2024-10-11 13:00:00+00:00,104.70881427150088
2024-10-11 14:00:00+00:00,110.23986911159189
2024-10-11 15:00:00+00:00,96.54554550169156
2024-10-11 16:00:00+00:00,68.96578501103355
2024-10-11 17:00:00+00:00,76.51901774249548
2024-10-11 18:00:00+00:00,87.1996436423907
2024-10-11 19:00:00+00:00,127.06299410484671
2024-10-14 13:00:00+00:00,184.43323937740487
2024-10-14 14:00:00+00:00,176.04153159874363
2024-10-14 15:00:00+00:00,193.1309738511602
2024-10-14 16:00:00+00:00,171.69311253328348
2024-10-14 17:00:00+00:00,177.79688389689863
2024-10-14 18:00:00+00:00,205.0712680144736
2024-10-14 19:00:00+00:00,181.00076625814526
2024-10-15 13:00:00+00:00,349.7194485691098
2024-10-15 14:00:00+00:00,320.9564873451627
2024-10-15 15:00:00+00:00,326.6792230999086
2024-10-15 16:00:00+00:00,332.2862937606792
2024-10-15 17:00:00+00:00,331.48872329146013
2024-10-15 18:00:00+00:00,346.5522780823524
2024-10-15 19:00:00+00:00,371.15581212698817
2024-10-16 13:00:00+00:00,379.81618086621097
2024-10-16 14:00:00+00:00,390.84011383238
2024-10-16 15:00:00+00:00,380.6168846891381
2024-10-16 16:00:00+00:00,373.78942451042406
2024-10-16 17:00:00+00:00,353.4023650238401
2024-10-16 18:00:00+00:00,371.9585534678539
2024-10-16 19:00:00+00:00,393.73999307354404
2024-10-17 13:00:00+00:00,407.625087312338
2024-10-17 14:00:00+00:00,439.40077579789
2024-10-17 15:00:00+00:00,439.40077579789
2024-10-17 16:00:00+00:00,439.40077579789
2024-10-17 17:00:00+00:00,439.40077579789
2024-10-17 18:00:00+00:00,439.40077579789
2024-10-17 19:00:00+00:00,439.40077579789
2024-10-18 13:00:00+00:00,439.40077579789
2024-10-18 14:00:00+00:00,439.40077579789
2024-10-18 15:00:00+00:00,439.40077579789
2024-10-18 16:00:00+00:00,439.40077579789
2024-10-18 17:00:00+00:00,439.40077579789
2024-10-18 18:00:00+00:00,439.40077579789
2024-10-18 19:00:00+00:00,439.40077579789
2024-10-21 13:00:00+00:00,439.40077579789
2024-10-21 14:00:00+00:00,439.40077579789
2024-10-21 15:00:00+00:00,439.40077579789
2024-10-21 16:00:00+00:00,439.40077579789
2024-10-21 17:00:00+00:00,439.40077579789
2024-10-21 18:00:00+00:00,439.40077579789
2024-10-21 19:00:00+00:00,439.40077579789
2024-10-22 13:00:00+00:00,439.40077579789
2024-10-22 14:00:00+00:00,439.40077579789
2024-10-22 15:00:00+00:00,439.40077579789
2024-10-22 16:00:00+00:00,439.40077579789
2024-10-22 17:00:00+00:00,439.40077579789
2024-10-22 18:00:00+00:00,439.40077579789
2024-10-22 19:00:00+00:00,439.40077579789
2024-10-23 13:00:00+00:00,439.40077579789
2024-10-23 14:00:00+00:00,439.40077579789
2024-10-23 15:00:00+00:00,439.40077579789
2024-10-23 16:00:00+00:00,439.40077579789
2024-10-23 17:00:00+00:00,439.40077579789
2024-10-23 18:00:00+00:00,439.40077579789
2024-10-23 19:00:00+00:00,439.40077579789
2024-10-24 13:00:00+00:00,439.40077579789
2024-10-24 14:00:00+00:00,439.40077579789
2024-10-24 15:00:00+00:00,439.40077579789
2024-10-24 16:00:00+00:00,439.40077579789
2024-10-24 17:00:00+00:00,439.40077579789
2024-10-24 18:00:00+00:00,439.40077579789
2024-10-24 19:00:00+00:00,439.40077579789
2024-10-25 13:00:00+00:00,439.40077579789
2024-10-25 14:00:00+00:00,439.40077579789
2024-10-25 15:00:00+00:00,439.40077579789
2024-10-25 16:00:00+00:00,439.40077579789
2024-10-25 17:00:00+00:00,439.40077579789
2024-10-25 18:00:00+00:00,439.40077579789
2024-10-25 19:00:00+00:00,439.40077579789
2024-10-28 13:00:00+00:00,439.40077579789
2024-10-28 14:00:00+00:00,439.40077579789
2024-10-28 15:00:00+00:00,439.40077579789
2024-10-28 16:00:00+00:00,439.40077579789
2024-10-28 17:00:00+00:00,439.40077579789
2024-10-28 18:00:00+00:00,439.40077579789
2024-10-28 19:00:00+00:00,439.40077579789
2024-10-29 13:00:00+00:00,439.40077579789
2024-10-29 14:00:00+00:00,439.40077579789
2024-10-29 15:00:00+00:00,439.40077579789
2024-10-29 16:00:00+00:00,439.40077579789
2024-10-29 17:00:00+00:00,439.40077579789
2024-10-29 18:00:00+00:00,439.40077579789
2024-10-29 19:00:00+00:00,439.40077579789
2024-10-30 13:00:00+00:00,439.40077579789
2024-10-30 14:00:00+00:00,439.40077579789
2024-10-30 15:00:00+00:00,439.40077579789
2024-10-30 16:00:00+00:00,439.40077579789
2024-10-30 17:00:00+00:00,439.40077579789
2024-10-30 18:00:00+00:00,439.40077579789
2024-10-30 19:00:00+00:00,439.40077579789
2024-10-31 13:00:00+00:00,439.40077579789
2024-10-31 14:00:00+00:00,439.40077579789
2024-10-31 15:00:00+00:00,439.40077579789
2024-10-31 16:00:00+00:00,439.40077579789
2024-10-31 17:00:00+00:00,439.40077579789
2024-10-31 18:00:00+00:00,439.40077579789
2024-10-31 19:00:00+00:00,439.40077579789
2024-11-01 13:00:00+00:00,439.40077579789
2024-11-01 14:00:00+00:00,439.40077579789
2024-11-01 15:00:00+00:00,439.40077579789
2024-11-01 16:00:00+00:00,439.40077579789
2024-11-01 17:00:00+00:00,439.40077579789
2024-11-01 18:00:00+00:00,439.40077579789
2024-11-01 19:00:00+00:00,439.40077579789
2024-11-04 14:00:00+00:00,439.40077579789
2024-11-04 15:00:00+00:00,439.40077579789
2024-11-04 16:00:00+00:00,439.40077579789
2024-11-04 17:00:00+00:00,439.40077579789
2024-11-04 18:00:00+00:00,439.40077579789
2024-11-04 19:00:00+00:00,439.40077579789
2024-11-04 20:00:00+00:00,439.40077579789
2024-11-05 14:00:00+00:00,439.40077579789
2024-11-05 15:00:00+00:00,439.40077579789
2024-11-05 16:00:00+00:00,439.40077579789
2024-11-05 17:00:00+00:00,439.40077579789
2024-11-05 18:00:00+00:00,439.40077579789
2024-11-05 19:00:00+00:00,439.40077579789
2024-11-05 20:00:00+00:00,439.40077579789
2024-11-06 14:00:00+00:00,439.40077579789
2024-11-06 15:00:00+00:00,439.40077579789
2024-11-06 16:00:00+00:00,439.40077579789
2024-11-06 17:00:00+00:00,439.40077579789
2024-11-06 18:00:00+00:00,439.40077579789
2024-11-06 19:00:00+00:00,439.40077579789
2024-11-06 20:00:00+00:00,439.40077579789
2024-11-07 14:00:00+00:00,439.40077579789
2024-11-07 15:00:00+00:00,439.40077579789
2024-11-07 16:00:00+00:00,439.40077579789
2024-11-07 17:00:00+00:00,439.40077579789
2024-11-07 18:00:00+00:00,439.40077579789
2024-11-07 19:00:00+00:00,439.40077579789
2024-11-07 20:00:00+00:00,439.40077579789
2024-11-08 14:00:00+00:00,439.40077579789
2024-11-08 15:00:00+00:00,362.99041096545113
2024-11-08 16:00:00+00:00,349.75801720946987
2024-11-08 17:00:00+00:00,275.65676154979843
2024-11-08 18:00:00+00:00,252.5652696028685
2024-11-08 19:00:00+00:00,249.0105379991251
2024-11-08 20:00:00+00:00,281.4235227231609
2024-11-11 14:00:00+00:00,296.3077329903289
2024-11-11 15:00:00+00:00,380.8151601716239
2024-11-11 16:00:00+00:00,379.0498215833881
2024-11-11 17:00:00+00:00,396.28382895546247
2024-11-11 18:00:00+00:00,373.7216821700547
2024-11-11 19:00:00+00:00,396.12678646526655
2024-11-11 20:00:00+00:00,392.2131993340317
2024-11-12 14:00:00+00:00,410.6051343940767
2024-11-12 15:00:00+00:00,402.54936919175276
2024-11-12 16:00:00+00:00,408.3205186386776
2024-11-12 17:00:00+00:00,400.9080062559636
2024-11-12 18:00:00+00:00,404.4965993250544
2024-11-12 19:00:00+00:00,402.22202809849284
2024-11-12 20:00:00+00:00,395.6894096926771
2024-11-13 14:00:00+00:00,390.28422685634246
2024-11-13 15:00:00+00:00,350.9901851172202
2024-11-13 16:00:00+00:00,317.3916945572948
2024-11-13 17:00:00+00:00,295.4507076143031
2024-11-13 18:00:00+00:00,294.22675725380805
2024-11-13 19:00:00+00:00,291.9612038198617
2024-11-13 20:00:00+00:00,287.56323310517075
2024-11-14 14:00:00+00:00,280.1568094898138
2024-11-14 15:00:00+00:00,298.9869485977095
2024-11-14 16:00:00+00:00,323.16751622833823
2024-11-14 17:00:00+00:00,318.8298457603099
2024-11-14 18:00:00+00:00,281.06845539170513
2024-11-14 19:00:00+00:00,239.4319823035453
2024-11-14 20:00:00+00:00,229.094163067929
2024-11-15 14:00:00+00:00,188.59453962689722
2024-11-15 15:00:00+00:00,254.1463322919954
2024-11-15 16:00:00+00:00,249.46136191554936
2024-11-15 17:00:00+00:00,249.64514498537602
2024-11-15 18:00:00+00:00,262.76500232287304
2024-11-15 19:00:00+00:00,257.60909550680606
2024-11-15 20:00:00+00:00,256.3447666275026
2024-11-18 14:00:00+00:00,184.38050569007208
2024-11-18 15:00:00+00:00,188.85067139174248
2024-11-18 16:00:00+00:00,134.1414786852203
2024-11-18 17:00:00+00:00,123.78954131735654
2024-11-18 18:00:00+00:00,130.23613465126124
2024-11-18 19:00:00+00:00,127.61882102551957
2024-11-18 20:00:00+00:00,145.15770993654127
2024-11-19 14:00:00+00:00,161.10144247727956
2024-11-19 15:00:00+00:00,165.68179756631864
2024-11-19 16:00:00+00:00,147.47061468473515
2024-11-19 17:00:00+00:00,178.90074417846506
2024-11-19 18:00:00+00:00,179.9385045509437
2024-11-19 19:00:00+00:00,208.47989295314432
2024-11-19 20:00:00+00:00,214.81166383931043
2024-11-20 14:00:00+00:00,173.56578567773087
2024-11-20 15:00:00+00:00,197.6180052781313
2024-11-20 16:00:00+00:00,204.89065334673177
2024-11-20 17:00:00+00:00,200.4268139031799
2024-11-20 18:00:00+00:00,195.05261601461768
2024-11-20 19:00:00+00:00,165.04953761118355
2024-11-20 20:00:00+00:00,167.46277662146647
2024-11-21 14:00:00+00:00,129.37231035571807
2024-11-21 15:00:00+00:00,133.29994006806749
2024-11-21 16:00:00+00:00,170.15301722446225
2024-11-21 17:00:00+00:00,204.43486454474032
2024-11-21 18:00:00+00:00,230.8038954717344
2024-11-21 19:00:00+00:00,211.2881959873819
2024-11-21 20:00:00+00:00,234.3151066623313
2024-11-22 14:00:00+00:00,219.95466745672434
2024-11-22 15:00:00+00:00,196.9383640652114
2024-11-22 16:00:00+00:00,176.09470276521222
2024-11-22 17:00:00+00:00,203.6079124380263
2024-11-22 18:00:00+00:00,202.83370606929108
2024-11-22 19:00:00+00:00,189.9759826018057
2024-11-22 20:00:00+00:00,187.00188399576876
2024-11-25 14:00:00+00:00,242.41787867552154
2024-11-25 15:00:00+00:00,300.4635153443006
2024-11-25 16:00:00+00:00,365.0689969657905
2024-11-25 17:00:00+00:00,373.562292648743
2024-11-25 18:00:00+00:00,393.0301906946307
2024-11-25 19:00:00+00:00,412.791414660392
2024-11-25 20:00:00+00:00,439.84429517702154
2024-11-26 14:00:00+00:00,427.0837861962985
2024-11-26 15:00:00+00:00,462.39314852663335
2024-11-26 16:00:00+00:00,439.45252651982
2024-11-26 17:00:00+00:00,433.8607785827992
2024-11-26 18:00:00+00:00,385.9142531387487
2024-11-26 19:00:00+00:00,388.07628794682597
2024-11-26 20:00:00+00:00,394.3969415382641
2024-11-27 14:00:00+00:00,340.14474529824554
2024-11-27 15:00:00+00:00,332.4540081734927
2024-11-27 16:00:00+00:00,320.3792403071663
2024-11-27 17:00:00+00:00,357.76338713594004
2024-11-27 18:00:00+00:00,366.65687874231844
2024-11-27 19:00:00+00:00,370.67959967704024
2024-11-27 20:00:00+00:00,369.31375070924906
2024-11-29 14:00:00+00:00,359.23767170245645
2024-11-29 15:00:00+00:00,371.18107160596736
2024-11-29 16:00:00+00:00,360.03956654132537
2024-12-02 14:00:00+00:00,462.8127971300697
2024-12-02 15:00:00+00:00,510.6385851246386
2024-12-02 16:00:00+00:00,528.6380578646149
2024-12-02 17:00:00+00:00,491.299849622712
2024-12-02 18:00:00+00:00,468.85690463515033
2024-12-02 19:00:00+00:00,462.6893143069054
2024-12-02 20:00:00+00:00,479.5725353728422
2024-12-03 14:00:00+00:00,477.80435692420775
2024-12-03 15:00:00+00:00,445.5099274606966
2024-12-03 16:00:00+00:00,444.28423390134134
2024-12-03 17:00:00+00:00,425.255757860843
2024-12-03 18:00:00+00:00,403.94133839066114
2024-12-03 19:00:00+00:00,434.1653694575506
2024-12-03 20:00:00+00:00,448.0610447736159
2024-12-04 14:00:00+00:00,593.7436635117326
2024-12-04 15:00:00+00:00,560.8161627136061
2024-12-04 16:00:00+00:00,578.6802465203565
2024-12-04 17:00:00+00:00,584.9501051048929
2024-12-04 18:00:00+00:00,586.7934721089445
2024-12-04 19:00:00+00:00,567.0968294151634
2024-12-04 20:00:00+00:00,552.2556467318597
2024-12-05 14:00:00+00:00,480.9643263023124
2024-12-05 15:00:00+00:00,511.3033821304053
2024-12-05 16:00:00+00:00,510.8691328584661
2024-12-05 17:00:00+00:00,485.4214076333614
2024-12-05 18:00:00+00:00,527.4539295518418
2024-12-05 19:00:00+00:00,492.34607846048675
2024-12-05 20:00:00+00:00,491.76624570814033
2024-12-06 14:00:00+00:00,660.331095061131
2024-12-06 15:00:00+00:00,625.3391489214146
2024-12-06 16:00:00+00:00,624.6443122795669
2024-12-06 17:00:00+00:00,625.9395325213037
2024-12-06 18:00:00+00:00,608.9835866812685
2024-12-06 19:00:00+00:00,598.1774843388629
2024-12-06 20:00:00+00:00,587.6494435284982
2024-12-09 14:00:00+00:00,559.9749103401691
2024-12-09 15:00:00+00:00,554.4734414324063
2024-12-09 16:00:00+00:00,536.340779795921
2024-12-09 17:00:00+00:00,518.184217440203
2024-12-09 18:00:00+00:00,531.9161922661013
2024-12-09 19:00:00+00:00,519.513127591487
2024-12-09 20:00:00+00:00,593.4068718316022
2024-12-10 14:00:00+00:00,534.2693146812979
2024-12-10 15:00:00+00:00,562.447999237273
2024-12-10 16:00:00+00:00,598.2420656108434
2024-12-10 17:00:00+00:00,611.3581160908408
2024-12-10 18:00:00+00:00,614.5509799371904
2024-12-10 19:00:00+00:00,646.3779593588016
2024-12-10 20:00:00+00:00,657.7631979146948
2024-12-11 14:00:00+00:00,651.7318910161284
2024-12-11 15:00:00+00:00,690.0264334037549
2024-12-11 16:00:00+00:00,690.0264334037549
2024-12-11 17:00:00+00:00,690.0264334037549
2024-12-11 18:00:00+00:00,690.0264334037549
2024-12-11 19:00:00+00:00,690.0264334037549
2024-12-11 20:00:00+00:00,690.0264334037549
2024-12-12 14:00:00+00:00,690.0264334037549
2024-12-12 15:00:00+00:00,690.0264334037549
2024-12-12 16:00:00+00:00,690.0264334037549
2024-12-12 17:00:00+00:00,690.0264334037549
2024-12-12 18:00:00+00:00,690.0264334037549
2024-12-12 19:00:00+00:00,690.0264334037549
2024-12-12 20:00:00+00:00,690.0264334037549
2024-12-13 14:00:00+00:00,690.0264334037549
2024-12-13 15:00:00+00:00,690.0264334037549
2024-12-13 16:00:00+00:00,690.0264334037549
2024-12-13 17:00:00+00:00,690.0264334037549
2024-12-13 18:00:00+00:00,690.0264334037549
2024-12-13 19:00:00+00:00,690.0264334037549
2024-12-13 20:00:00+00:00,690.0264334037549
2024-12-16 14:00:00+00:00,690.0264334037549
2024-12-16 15:00:00+00:00,690.0264334037549
2024-12-16 16:00:00+00:00,690.0264334037549
2024-12-16 17:00:00+00:00,690.0264334037549
2024-12-16 18:00:00+00:00,690.0264334037549
2024-12-16 19:00:00+00:00,690.0264334037549
2024-12-16 20:00:00+00:00,690.0264334037549
2024-12-17 14:00:00+00:00,690.0264334037549
2024-12-17 15:00:00+00:00,690.0264334037549
2024-12-17 16:00:00+00:00,690.0264334037549
2024-12-17 17:00:00+00:00,690.0264334037549
2024-12-17 18:00:00+00:00,690.0264334037549
2024-12-17 19:00:00+00:00,690.0264334037549
2024-12-17 20:00:00+00:00,690.0264334037549
2024-12-18 14:00:00+00:00,690.0264334037549
2024-12-18 15:00:00+00:00,690.0264334037549
2024-12-18 16:00:00+00:00,690.0264334037549
2024-12-18 17:00:00+00:00,690.0264334037549
2024-12-18 18:00:00+00:00,690.0264334037549
2024-12-18 19:00:00+00:00,690.0264334037549
2024-12-18 20:00:00+00:00,690.0264334037549
2024-12-19 14:00:00+00:00,690.0264334037549
2024-12-19 15:00:00+00:00,690.0264334037549
2024-12-19 16:00:00+00:00,690.0264334037549
2024-12-19 17:00:00+00:00,690.0264334037549
2024-12-19 18:00:00+00:00,690.0264334037549
2024-12-19 19:00:00+00:00,690.0264334037549
2024-12-19 20:00:00+00:00,690.0264334037549
2024-12-20 14:00:00+00:00,690.0264334037549
2024-12-20 15:00:00+00:00,690.0264334037549
2024-12-20 16:00:00+00:00,690.0264334037549
2024-12-20 17:00:00+00:00,690.0264334037549
2024-12-20 18:00:00+00:00,690.0264334037549
2024-12-20 19:00:00+00:00,690.0264334037549
2024-12-20 20:00:00+00:00,690.0264334037549
2024-12-23 14:00:00+00:00,690.0264334037549
2024-12-23 15:00:00+00:00,690.0264334037549
2024-12-23 16:00:00+00:00,690.0264334037549
2024-12-23 17:00:00+00:00,690.0264334037549
2024-12-23 18:00:00+00:00,690.0264334037549
2024-12-23 19:00:00+00:00,690.0264334037549
2024-12-23 20:00:00+00:00,690.0264334037549
2024-12-24 14:00:00+00:00,690.0264334037549
2024-12-24 15:00:00+00:00,690.0264334037549
2024-12-24 16:00:00+00:00,690.0264334037549
2024-12-26 14:00:00+00:00,690.0264334037549
2024-12-26 15:00:00+00:00,690.0264334037549
2024-12-26 16:00:00+00:00,690.0264334037549
2024-12-26 17:00:00+00:00,690.0264334037549
2024-12-26 18:00:00+00:00,690.0264334037549
2024-12-26 19:00:00+00:00,690.0264334037549
2024-12-26 20:00:00+00:00,690.0264334037549
2024-12-27 14:00:00+00:00,690.0264334037549
2024-12-27 15:00:00+00:00,690.0264334037549
2024-12-27 16:00:00+00:00,690.0264334037549
2024-12-27 17:00:00+00:00,690.0264334037549
2024-12-27 18:00:00+00:00,690.0264334037549
2024-12-27 19:00:00+00:00,690.0264334037549
2024-12-27 20:00:00+00:00,690.0264334037549
2024-12-30 14:00:00+00:00,690.0264334037549
2024-12-30 15:00:00+00:00,690.0264334037549
2024-12-30 16:00:00+00:00,690.0264334037549
2024-12-30 17:00:00+00:00,690.0264334037549
2024-12-30 18:00:00+00:00,690.0264334037549
2024-12-30 19:00:00+00:00,690.0264334037549
2024-12-30 20:00:00+00:00,690.0264334037549
2024-12-31 14:00:00+00:00,690.0264334037549
2024-12-31 15:00:00+00:00,690.0264334037549
2024-12-31 16:00:00+00:00,690.0264334037549
2024-12-31 17:00:00+00:00,690.0264334037549
2024-12-31 18:00:00+00:00,690.0264334037549
2024-12-31 19:00:00+00:00,690.0264334037549
2024-12-31 20:00:00+00:00,690.0264334037549
2025-01-02 14:00:00+00:00,690.0264334037549
2025-01-02 15:00:00+00:00,690.0264334037549
2025-01-02 16:00:00+00:00,690.0264334037549
2025-01-02 17:00:00+00:00,690.0264334037549
2025-01-02 18:00:00+00:00,690.0264334037549
2025-01-02 19:00:00+00:00,690.0264334037549
2025-01-02 20:00:00+00:00,690.0264334037549
2025-01-03 14:00:00+00:00,690.0264334037549
2025-01-03 15:00:00+00:00,690.0264334037549
2025-01-03 16:00:00+00:00,690.0264334037549
2025-01-03 17:00:00+00:00,690.0264334037549
2025-01-03 18:00:00+00:00,690.0264334037549
2025-01-03 19:00:00+00:00,690.0264334037549
2025-01-03 20:00:00+00:00,690.0264334037549
2025-01-06 14:00:00+00:00,690.0264334037549
2025-01-06 15:00:00+00:00,690.0264334037549
2025-01-06 16:00:00+00:00,690.0264334037549
2025-01-06 17:00:00+00:00,690.0264334037549
2025-01-06 18:00:00+00:00,690.0264334037549
2025-01-06 19:00:00+00:00,690.0264334037549
2025-01-06 20:00:00+00:00,690.0264334037549
2025-01-07 14:00:00+00:00,690.0264334037549
2025-01-07 15:00:00+00:00,690.0264334037549
2025-01-07 16:00:00+00:00,690.0264334037549
2025-01-07 17:00:00+00:00,690.0264334037549
2025-01-07 18:00:00+00:00,690.0264334037549
2025-01-07 19:00:00+00:00,690.0264334037549
2025-01-07 20:00:00+00:00,690.0264334037549
2025-01-08 14:00:00+00:00,690.0264334037549
2025-01-08 15:00:00+00:00,690.0264334037549
2025-01-08 16:00:00+00:00,690.0264334037549
2025-01-08 17:00:00+00:00,690.0264334037549
2025-01-08 18:00:00+00:00,690.0264334037549
2025-01-08 19:00:00+00:00,690.0264334037549
2025-01-08 20:00:00+00:00,690.0264334037549
2025-01-10 14:00:00+00:00,459.93570376183675
2025-01-10 15:00:00+00:00,560.1146485912752
2025-01-10 16:00:00+00:00,522.8774498479092
2025-01-10 17:00:00+00:00,528.1294930818458
2025-01-10 18:00:00+00:00,480.25171934746817
2025-01-10 19:00:00+00:00,519.6468593118603
2025-01-10 20:00:00+00:00,494.66306400689973
2025-01-13 14:00:00+00:00,389.58373145847446
2025-01-13 15:00:00+00:00,318.4982772899907
2025-01-13 16:00:00+00:00,334.09305644035106
2025-01-13 17:00:00+00:00,282.0579769437865
2025-01-13 18:00:00+00:00,289.6329858751115
2025-01-13 19:00:00+00:00,349.9774306838534
2025-01-13 20:00:00+00:00,357.9367898607126
2025-01-14 14:00:00+00:00,355.7701288542012
2025-01-14 15:00:00+00:00,334.7531614640539
2025-01-14 16:00:00+00:00,314.66109525043413
2025-01-14 17:00:00+00:00,284.8843070733828
2025-01-14 18:00:00+00:00,291.32471040510376
2025-01-14 19:00:00+00:00,300.57476708514827
2025-01-14 20:00:00+00:00,278.22002439391656
2025-01-15 14:00:00+00:00,312.8191400972867
2025-01-15 15:00:00+00:00,318.4784751266072
2025-01-15 16:00:00+00:00,322.49953026767577
2025-01-15 17:00:00+00:00,302.44440286824334
2025-01-15 18:00:00+00:00,275.6580857831832
2025-01-15 19:00:00+00:00,268.97373599343456
2025-01-15 20:00:00+00:00,235.3331639449491
2025-01-16 14:00:00+00:00,237.54838889588675
2025-01-16 15:00:00+00:00,226.82082692988837
2025-01-16 16:00:00+00:00,228.82631848271757
2025-01-16 17:00:00+00:00,229.84703042513547
2025-01-16 18:00:00+00:00,219.27693465140408
2025-01-16 19:00:00+00:00,215.1327562849647
2025-01-16 20:00:00+00:00,191.31030845752588
2025-01-17 14:00:00+00:00,383.8700319392684
2025-01-17 15:00:00+00:00,411.9564150009132
2025-01-17 16:00:00+00:00,415.25278108436254
2025-01-17 17:00:00+00:00,432.6853047111015
2025-01-17 18:00:00+00:00,439.067748580119
2025-01-17 19:00:00+00:00,421.5924790267384
2025-01-17 20:00:00+00:00,394.9369323088878
2025-01-21 14:00:00+00:00,516.158940796937
2025-01-21 15:00:00+00:00,442.61180128868307
2025-01-21 16:00:00+00:00,470.840269206994
2025-01-21 17:00:00+00:00,458.37831173653205
2025-01-21 18:00:00+00:00,477.58685616273107
2025-01-21 19:00:00+00:00,466.071063698739
2025-01-21 20:00:00+00:00,432.5507660643291
2025-01-22 14:00:00+00:00,420.49139064565577
2025-01-22 15:00:00+00:00,408.6014267319569
2025-01-22 16:00:00+00:00,386.092343230569
2025-01-22 17:00:00+00:00,402.7066568874488
2025-01-22 18:00:00+00:00,437.3683165372814
2025-01-22 19:00:00+00:00,413.4810313554374
2025-01-22 20:00:00+00:00,466.6293454259145
2025-01-23 14:00:00+00:00,396.01742640038566
2025-01-23 15:00:00+00:00,491.7552925358425
2025-01-23 16:00:00+00:00,469.538929509708
2025-01-23 17:00:00+00:00,468.4719434765137
2025-01-23 18:00:00+00:00,477.0087923985532
2025-01-23 19:00:00+00:00,503.8681974092196
2025-01-23 20:00:00+00:00,488.57609468990404
2025-01-24 14:00:00+00:00,575.1777719034337
2025-01-24 15:00:00+00:00,589.2089313784321
2025-01-24 16:00:00+00:00,608.1008863198504
2025-01-24 17:00:00+00:00,641.716946461357
2025-01-24 18:00:00+00:00,626.0364815244628
2025-01-24 19:00:00+00:00,627.530808049595
2025-01-24 20:00:00+00:00,634.0408704078981
2025-01-27 14:00:00+00:00,517.7277397361948
2025-01-27 15:00:00+00:00,588.8584615132743
2025-01-27 16:00:00+00:00,638.2534829787519
2025-01-27 17:00:00+00:00,652.8727759617141
2025-01-27 18:00:00+00:00,629.3590097545876
2025-01-27 19:00:00+00:00,619.8847627270377
2025-01-27 20:00:00+00:00,634.9871581092933
2025-01-28 14:00:00+00:00,705.7740026928761
2025-01-28 15:00:00+00:00,724.4137790895337
2025-01-28 16:00:00+00:00,724.3805454669157
2025-01-28 17:00:00+00:00,705.7537285857601
2025-01-28 18:00:00+00:00,691.0494255490554
2025-01-28 19:00:00+00:00,671.4810427843007
2025-01-28 20:00:00+00:00,688.3760588649642
2025-01-29 14:00:00+00:00,713.7190344758144
2025-01-29 15:00:00+00:00,694.07468758027
2025-01-29 16:00:00+00:00,688.6822146597599
2025-01-29 17:00:00+00:00,697.1346732409372
2025-01-29 18:00:00+00:00,690.1507603280539
2025-01-29 19:00:00+00:00,669.7237765385961
2025-01-29 20:00:00+00:00,672.5489702815277
2025-01-30 14:00:00+00:00,626.4725389611971
2025-01-30 15:00:00+00:00,646.5293055962131
2025-01-30 16:00:00+00:00,707.8676625168983
2025-01-30 17:00:00+00:00,676.2901646792042
2025-01-30 18:00:00+00:00,703.4654157092162
2025-01-30 19:00:00+00:00,710.6357275491283
2025-01-30 20:00:00+00:00,705.1513180778618
2025-01-31 14:00:00+00:00,879.2349417214887
2025-01-31 15:00:00+00:00,879.2349417214887
2025-01-31 16:00:00+00:00,879.2349417214887
2025-01-31 17:00:00+00:00,879.2349417214887
2025-01-31 18:00:00+00:00,879.2349417214887
2025-01-31 19:00:00+00:00,879.2349417214887
2025-01-31 20:00:00+00:00,879.2349417214887
2025-02-03 14:00:00+00:00,879.2349417214887
2025-02-03 15:00:00+00:00,879.2349417214887
2025-02-03 16:00:00+00:00,879.2349417214887
2025-02-03 17:00:00+00:00,879.2349417214887
2025-02-03 18:00:00+00:00,879.2349417214887
2025-02-03 19:00:00+00:00,879.2349417214887
2025-02-03 20:00:00+00:00,879.2349417214887
2025-02-04 14:00:00+00:00,879.2349417214887
2025-02-04 15:00:00+00:00,879.2349417214887
2025-02-04 16:00:00+00:00,879.2349417214887
2025-02-04 17:00:00+00:00,879.2349417214887
2025-02-04 18:00:00+00:00,879.2349417214887
2025-02-04 19:00:00+00:00,879.2349417214887
2025-02-04 20:00:00+00:00,879.2349417214887
2025-02-05 14:00:00+00:00,879.2349417214887
2025-02-05 15:00:00+00:00,879.2349417214887
2025-02-05 16:00:00+00:00,879.2349417214887
2025-02-05 17:00:00+00:00,879.2349417214887
2025-02-05 18:00:00+00:00,879.2349417214887
2025-02-05 19:00:00+00:00,879.2349417214887
2025-02-05 20:00:00+00:00,879.2349417214887
2025-02-06 14:00:00+00:00,879.2349417214887
2025-02-06 15:00:00+00:00,879.2349417214887
2025-02-06 16:00:00+00:00,879.2349417214887
2025-02-06 17:00:00+00:00,879.2349417214887
2025-02-06 18:00:00+00:00,879.2349417214887
2025-02-06 19:00:00+00:00,879.2349417214887
2025-02-06 20:00:00+00:00,879.2349417214887
2025-02-07 14:00:00+00:00,879.2349417214887
2025-02-07 15:00:00+00:00,879.2349417214887
2025-02-07 16:00:00+00:00,879.2349417214887
2025-02-07 17:00:00+00:00,879.2349417214887
2025-02-07 18:00:00+00:00,879.2349417214887
2025-02-07 19:00:00+00:00,879.2349417214887
2025-02-07 20:00:00+00:00,879.2349417214887
2025-02-10 14:00:00+00:00,879.2349417214887
2025-02-10 15:00:00+00:00,879.2349417214887
2025-02-10 16:00:00+00:00,879.2349417214887
2025-02-10 17:00:00+00:00,879.2349417214887
2025-02-10 18:00:00+00:00,879.2349417214887
2025-02-10 19:00:00+00:00,879.2349417214887
2025-02-10 20:00:00+00:00,879.2349417214887
2025-02-11 14:00:00+00:00,879.2349417214887
2025-02-11 15:00:00+00:00,879.2349417214887
2025-02-11 16:00:00+00:00,879.2349417214887
2025-02-11 17:00:00+00:00,879.2349417214887
2025-02-11 18:00:00+00:00,879.2349417214887
2025-02-11 19:00:00+00:00,879.2349417214887
2025-02-11 20:00:00+00:00,879.2349417214887
2025-02-12 14:00:00+00:00,879.2349417214887
2025-02-12 15:00:00+00:00,879.2349417214887
2025-02-12 16:00:00+00:00,879.2349417214887
2025-02-12 17:00:00+00:00,879.2349417214887
2025-02-12 18:00:00+00:00,879.2349417214887
2025-02-12 19:00:00+00:00,879.2349417214887
2025-02-12 20:00:00+00:00,879.2349417214887
2025-02-13 14:00:00+00:00,879.2349417214887
2025-02-13 15:00:00+00:00,879.2349417214887
2025-02-13 16:00:00+00:00,879.2349417214887
2025-02-13 17:00:00+00:00,879.2349417214887
2025-02-13 18:00:00+00:00,879.2349417214887
2025-02-13 19:00:00+00:00,879.2349417214887
2025-02-13 20:00:00+00:00,879.2349417214887
2025-02-14 14:00:00+00:00,879.2349417214887
2025-02-14 15:00:00+00:00,879.2349417214887
2025-02-14 16:00:00+00:00,879.2349417214887
2025-02-14 17:00:00+00:00,879.2349417214887
2025-02-14 18:00:00+00:00,879.2349417214887
2025-02-14 19:00:00+00:00,879.2349417214887
2025-02-14 20:00:00+00:00,879.2349417214887
2025-02-18 14:00:00+00:00,879.2349417214887
2025-02-18 15:00:00+00:00,879.2349417214887
2025-02-18 16:00:00+00:00,879.2349417214887
2025-02-18 17:00:00+00:00,879.2349417214887
2025-02-18 18:00:00+00:00,879.2349417214887
2025-02-18 19:00:00+00:00,879.2349417214887
2025-02-18 20:00:00+00:00,879.2349417214887
2025-02-19 14:00:00+00:00,879.2349417214887
2025-02-19 15:00:00+00:00,879.2349417214887
2025-02-19 16:00:00+00:00,879.2349417214887
2025-02-19 17:00:00+00:00,879.2349417214887
2025-02-19 18:00:00+00:00,879.2349417214887
2025-02-19 19:00:00+00:00,879.2349417214887
2025-02-19 20:00:00+00:00,879.2349417214887
2025-02-20 14:00:00+00:00,879.2349417214887
2025-02-20 15:00:00+00:00,879.2349417214887
2025-02-20 16:00:00+00:00,879.2349417214887
2025-02-20 17:00:00+00:00,879.2349417214887
2025-02-20 18:00:00+00:00,879.2349417214887
2025-02-20 19:00:00+00:00,879.2349417214887
2025-02-20 20:00:00+00:00,879.2349417214887
2025-02-21 14:00:00+00:00,879.2349417214887
2025-02-21 15:00:00+00:00,879.2349417214887
2025-02-21 16:00:00+00:00,879.2349417214887
2025-02-21 17:00:00+00:00,879.2349417214887
2025-02-21 18:00:00+00:00,879.2349417214887
2025-02-21 19:00:00+00:00,879.2349417214887
2025-02-21 20:00:00+00:00,879.2349417214887
2025-02-24 14:00:00+00:00,879.2349417214887
2025-02-24 15:00:00+00:00,879.2349417214887
2025-02-24 16:00:00+00:00,879.2349417214887
2025-02-24 17:00:00+00:00,879.2349417214887
2025-02-24 18:00:00+00:00,879.2349417214887
2025-02-24 19:00:00+00:00,879.2349417214887
2025-02-24 20:00:00+00:00,879.2349417214887
2025-02-25 14:00:00+00:00,879.2349417214887
2025-02-25 15:00:00+00:00,879.2349417214887
2025-02-25 16:00:00+00:00,879.2349417214887
2025-02-25 17:00:00+00:00,879.2349417214887
2025-02-25 18:00:00+00:00,879.2349417214887
2025-02-25 19:00:00+00:00,879.2349417214887
2025-02-25 20:00:00+00:00,879.2349417214887
2025-02-26 14:00:00+00:00,879.2349417214887
2025-02-26 15:00:00+00:00,879.2349417214887
2025-02-26 16:00:00+00:00,879.2349417214887
2025-02-26 17:00:00+00:00,879.2349417214887
2025-02-26 18:00:00+00:00,879.2349417214887
2025-02-26 19:00:00+00:00,879.2349417214887
2025-02-26 20:00:00+00:00,879.2349417214887
2025-02-27 14:00:00+00:00,879.2349417214887
2025-02-27 15:00:00+00:00,879.2349417214887
2025-02-27 16:00:00+00:00,879.2349417214887
2025-02-27 17:00:00+00:00,879.2349417214887
2025-02-27 18:00:00+00:00,879.2349417214887
2025-02-27 19:00:00+00:00,879.2349417214887
2025-02-27 20:00:00+00:00,879.2349417214887
2025-02-28 14:00:00+00:00,879.2349417214887
2025-02-28 15:00:00+00:00,879.2349417214887
2025-02-28 16:00:00+00:00,879.2349417214887
2025-02-28 17:00:00+00:00,879.2349417214887
2025-02-28 18:00:00+00:00,879.2349417214887
2025-02-28 19:00:00+00:00,879.2349417214887
2025-02-28 20:00:00+00:00,879.2349417214887
2025-03-03 14:00:00+00:00,879.2349417214887
2025-03-03 15:00:00+00:00,879.2349417214887
2025-03-03 16:00:00+00:00,879.2349417214887
2025-03-03 17:00:00+00:00,879.2349417214887
2025-03-03 18:00:00+00:00,879.2349417214887
2025-03-03 19:00:00+00:00,879.2349417214887
2025-03-03 20:00:00+00:00,879.2349417214887
2025-03-04 14:00:00+00:00,879.2349417214887
2025-03-04 15:00:00+00:00,879.2349417214887
2025-03-04 16:00:00+00:00,879.2349417214887
2025-03-04 17:00:00+00:00,879.2349417214887
2025-03-04 18:00:00+00:00,879.2349417214887
2025-03-04 19:00:00+00:00,879.2349417214887
2025-03-04 20:00:00+00:00,879.2349417214887
2025-03-05 14:00:00+00:00,879.2349417214887
2025-03-05 15:00:00+00:00,879.2349417214887
2025-03-05 16:00:00+00:00,879.2349417214887
2025-03-05 17:00:00+00:00,879.2349417214887
2025-03-05 18:00:00+00:00,879.2349417214887
2025-03-05 19:00:00+00:00,879.2349417214887
2025-03-05 20:00:00+00:00,879.2349417214887
2025-03-06 14:00:00+00:00,879.2349417214887
2025-03-06 15:00:00+00:00,879.2349417214887
2025-03-06 16:00:00+00:00,879.2349417214887
2025-03-06 17:00:00+00:00,879.2349417214887
2025-03-06 18:00:00+00:00,879.2349417214887
2025-03-06 19:00:00+00:00,879.2349417214887
2025-03-06 20:00:00+00:00,879.2349417214887
2025-03-07 14:00:00+00:00,879.2349417214887
2025-03-07 15:00:00+00:00,879.2349417214887
2025-03-07 16:00:00+00:00,879.2349417214887
2025-03-07 17:00:00+00:00,879.2349417214887
2025-03-07 18:00:00+00:00,879.2349417214887
2025-03-07 19:00:00+00:00,879.2349417214887
2025-03-07 20:00:00+00:00,879.2349417214887
2025-03-10 13:00:00+00:00,879.2349417214887
2025-03-10 14:00:00+00:00,879.2349417214887
2025-03-10 15:00:00+00:00,879.2349417214887
2025-03-10 16:00:00+00:00,879.2349417214887
2025-03-10 17:00:00+00:00,879.2349417214887
2025-03-10 18:00:00+00:00,879.2349417214887
2025-03-10 19:00:00+00:00,879.2349417214887
2025-03-11 13:00:00+00:00,879.2349417214887
2025-03-11 14:00:00+00:00,879.2349417214887
2025-03-11 15:00:00+00:00,879.2349417214887
2025-03-11 16:00:00+00:00,879.2349417214887
2025-03-11 17:00:00+00:00,879.2349417214887
2025-03-11 18:00:00+00:00,879.2349417214887
2025-03-11 19:00:00+00:00,879.2349417214887
2025-03-12 13:00:00+00:00,879.2349417214887
2025-03-12 14:00:00+00:00,879.2349417214887
2025-03-12 15:00:00+00:00,879.2349417214887
2025-03-12 16:00:00+00:00,879.2349417214887
2025-03-12 17:00:00+00:00,879.2349417214887
2025-03-12 18:00:00+00:00,879.2349417214887
2025-03-12 19:00:00+00:00,879.2349417214887
2025-03-13 13:00:00+00:00,879.2349417214887
2025-03-13 14:00:00+00:00,879.2349417214887
2025-03-13 15:00:00+00:00,879.2349417214887
2025-03-13 16:00:00+00:00,879.2349417214887
2025-03-13 17:00:00+00:00,879.2349417214887
2025-03-13 18:00:00+00:00,879.2349417214887
2025-03-13 19:00:00+00:00,879.2349417214887
2025-03-14 13:00:00+00:00,879.2349417214887
2025-03-14 14:00:00+00:00,879.2349417214887
2025-03-14 15:00:00+00:00,879.2349417214887
2025-03-14 16:00:00+00:00,879.2349417214887
2025-03-14 17:00:00+00:00,879.2349417214887
2025-03-14 18:00:00+00:00,879.2349417214887
2025-03-14 19:00:00+00:00,879.2349417214887
2025-03-17 13:00:00+00:00,879.2349417214887
2025-03-17 14:00:00+00:00,879.2349417214887
2025-03-17 15:00:00+00:00,879.2349417214887
2025-03-17 16:00:00+00:00,879.2349417214887
2025-03-17 17:00:00+00:00,879.2349417214887
2025-03-17 18:00:00+00:00,879.2349417214887
2025-03-17 19:00:00+00:00,879.2349417214887
2025-03-18 13:00:00+00:00,879.2349417214887
2025-03-18 14:00:00+00:00,879.2349417214887
2025-03-18 15:00:00+00:00,879.2349417214887
2025-03-18 16:00:00+00:00,879.2349417214887
2025-03-18 17:00:00+00:00,879.2349417214887
2025-03-18 18:00:00+00:00,879.2349417214887
2025-03-18 19:00:00+00:00,879.2349417214887
2025-03-19 13:00:00+00:00,879.2349417214887
2025-03-19 14:00:00+00:00,879.2349417214887
2025-03-19 15:00:00+00:00,879.2349417214887
2025-03-19 16:00:00+00:00,879.2349417214887
2025-03-19 17:00:00+00:00,879.2349417214887
2025-03-19 18:00:00+00:00,879.2349417214887
2025-03-19 19:00:00+00:00,879.2349417214887
2025-03-20 13:00:00+00:00,879.2349417214887
2025-03-20 14:00:00+00:00,879.2349417214887
2025-03-20 15:00:00+00:00,879.2349417214887
2025-03-20 16:00:00+00:00,879.2349417214887
2025-03-20 17:00:00+00:00,879.2349417214887
2025-03-20 18:00:00+00:00,879.2349417214887
2025-03-20 19:00:00+00:00,879.2349417214887
2025-03-21 13:00:00+00:00,879.2349417214887
2025-03-21 14:00:00+00:00,879.2349417214887
2025-03-21 15:00:00+00:00,879.2349417214887
2025-03-21 16:00:00+00:00,879.2349417214887
2025-03-21 17:00:00+00:00,879.2349417214887
2025-03-21 18:00:00+00:00,879.2349417214887
2025-03-21 19:00:00+00:00,879.2349417214887
2025-03-24 13:00:00+00:00,879.2349417214887
2025-03-24 14:00:00+00:00,879.2349417214887
2025-03-24 15:00:00+00:00,879.2349417214887
2025-03-24 16:00:00+00:00,879.2349417214887
2025-03-24 17:00:00+00:00,879.2349417214887
2025-03-24 18:00:00+00:00,879.2349417214887
2025-03-24 19:00:00+00:00,879.2349417214887
2025-03-25 13:00:00+00:00,879.2349417214887
2025-03-25 14:00:00+00:00,879.2349417214887
2025-03-25 15:00:00+00:00,879.2349417214887
2025-03-25 16:00:00+00:00,879.2349417214887
2025-03-25 17:00:00+00:00,879.2349417214887
2025-03-25 18:00:00+00:00,879.2349417214887
2025-03-25 19:00:00+00:00,879.2349417214887
2025-03-26 13:00:00+00:00,879.2349417214887
2025-03-26 14:00:00+00:00,879.2349417214887
2025-03-26 15:00:00+00:00,879.2349417214887
2025-03-26 16:00:00+00:00,879.2349417214887
2025-03-26 17:00:00+00:00,879.2349417214887
2025-03-26 18:00:00+00:00,879.2349417214887
2025-03-26 19:00:00+00:00,879.2349417214887
2025-03-27 13:00:00+00:00,879.2349417214887
2025-03-27 14:00:00+00:00,879.2349417214887
2025-03-27 15:00:00+00:00,879.2349417214887
2025-03-27 16:00:00+00:00,879.2349417214887
2025-03-27 17:00:00+00:00,879.2349417214887
2025-03-27 18:00:00+00:00,879.2349417214887
2025-03-27 19:00:00+00:00,879.2349417214887
2025-03-28 13:00:00+00:00,879.2349417214887
2025-03-28 14:00:00+00:00,879.2349417214887
2025-03-28 15:00:00+00:00,879.2349417214887
2025-03-28 16:00:00+00:00,879.2349417214887
2025-03-28 17:00:00+00:00,879.2349417214887
2025-03-28 18:00:00+00:00,879.2349417214887
2025-03-28 19:00:00+00:00,879.2349417214887
2025-03-31 13:00:00+00:00,879.2349417214887
2025-03-31 14:00:00+00:00,879.2349417214887
2025-03-31 15:00:00+00:00,879.2349417214887
2025-03-31 16:00:00+00:00,879.2349417214887
2025-03-31 17:00:00+00:00,879.2349417214887
2025-03-31 18:00:00+00:00,879.2349417214887
2025-03-31 19:00:00+00:00,879.2349417214887
2025-04-01 13:00:00+00:00,879.2349417214887
2025-04-01 14:00:00+00:00,879.2349417214887
2025-04-01 15:00:00+00:00,879.2349417214887
2025-04-01 16:00:00+00:00,879.2349417214887
2025-04-01 17:00:00+00:00,879.2349417214887
2025-04-01 18:00:00+00:00,879.2349417214887
2025-04-01 19:00:00+00:00,879.2349417214887
2025-04-02 13:00:00+00:00,879.2349417214887
2025-04-02 14:00:00+00:00,879.2349417214887
2025-04-02 15:00:00+00:00,879.2349417214887
2025-04-02 16:00:00+00:00,879.2349417214887
2025-04-02 17:00:00+00:00,879.2349417214887
2025-04-02 18:00:00+00:00,879.2349417214887
2025-04-02 19:00:00+00:00,879.2349417214887
2025-04-03 13:00:00+00:00,879.2349417214887
2025-04-03 14:00:00+00:00,879.2349417214887
2025-04-03 15:00:00+00:00,879.2349417214887
2025-04-03 16:00:00+00:00,879.2349417214887
2025-04-03 17:00:00+00:00,879.2349417214887
2025-04-03 18:00:00+00:00,879.2349417214887
2025-04-03 19:00:00+00:00,879.2349417214887
2025-04-04 13:00:00+00:00,484.02701307595515
2025-04-04 14:00:00+00:00,491.0329082010288
2025-04-04 15:00:00+00:00,458.08897261105295
2025-04-04 16:00:00+00:00,481.6818064472252
2025-04-04 17:00:00+00:00,439.5067329321181
2025-04-04 18:00:00+00:00,420.3256973371854
2025-04-04 19:00:00+00:00,412.21677420419235
2025-04-07 13:00:00+00:00,314.94129061554935
2025-04-07 14:00:00+00:00,246.44747447585453
2025-04-07 15:00:00+00:00,325.02059322311834
2025-04-07 16:00:00+00:00,387.48512488952315
2025-04-07 17:00:00+00:00,383.1797649184309
2025-04-07 18:00:00+00:00,326.00357309615754
2025-04-07 19:00:00+00:00,381.21151197477417
2025-04-08 13:00:00+00:00,381.3479522019321
2025-04-08 14:00:00+00:00,254.81788955419853
2025-04-08 15:00:00+00:00,304.68951626873263
2025-04-08 16:00:00+00:00,119.93805712937291
2025-04-08 17:00:00+00:00,175.09650361586822
2025-04-08 18:00:00+00:00,134.89289994776334
2025-04-08 19:00:00+00:00,138.00303960578808
2025-04-09 13:00:00+00:00,233.40930315654964
2025-04-09 14:00:00+00:00,254.80651674962712
2025-04-09 15:00:00+00:00,269.80503948673436
2025-04-09 16:00:00+00:00,591.9514701487667
2025-04-09 17:00:00+00:00,700.3001670904177
2025-04-09 18:00:00+00:00,647.5561278561044
2025-04-09 19:00:00+00:00,611.163299987095
2025-04-10 13:00:00+00:00,143.61637985294004
2025-04-10 14:00:00+00:00,116.62125913656877
2025-04-10 15:00:00+00:00,14.80936217240415
2025-04-10 16:00:00+00:00,22.682608764137488
2025-04-10 17:00:00+00:00,82.7416619904467
2025-04-10 18:00:00+00:00,6.693689371665968
2025-04-10 19:00:00+00:00,83.91231622243505
2025-04-11 13:00:00+00:00,31.28735563594337
2025-04-11 14:00:00+00:00,82.68247989325539
2025-04-11 15:00:00+00:00,153.20235040509598
2025-04-11 16:00:00+00:00,228.01895439009724
2025-04-11 17:00:00+00:00,282.1203834634428
2025-04-11 18:00:00+00:00,366.71314425946423
2025-04-11 19:00:00+00:00,305.97734778889185
2025-04-14 13:00:00+00:00,272.293519417262
2025-04-14 14:00:00+00:00,207.86091717825218
2025-04-14 15:00:00+00:00,167.70994505034463
2025-04-14 16:00:00+00:00,168.02813664494394
2025-04-14 17:00:00+00:00,229.01233758064822
2025-04-14 18:00:00+00:00,208.60340981640428
2025-04-14 19:00:00+00:00,239.09260967527462
2025-04-15 13:00:00+00:00,254.584735841875
2025-04-15 14:00:00+00:00,258.49495711231197
2025-04-15 15:00:00+00:00,234.66853579846628
2025-04-15 16:00:00+00:00,228.02473457078395
2025-04-15 17:00:00+00:00,221.384399436066
2025-04-15 18:00:00+00:00,259.37878943754185
2025-04-15 19:00:00+00:00,236.63160278775538
2025-04-16 13:00:00+00:00,336.78047243294026
2025-04-16 14:00:00+00:00,340.5823116837369
2025-04-16 15:00:00+00:00,335.8599272334759
2025-04-16 16:00:00+00:00,360.33026697384383
2025-04-16 17:00:00+00:00,293.193851191819
2025-04-16 18:00:00+00:00,253.1076677958156
2025-04-16 19:00:00+00:00,272.0462825146307
2025-04-17 13:00:00+00:00,411.2318815800634
2025-04-17 14:00:00+00:00,447.62722694512155
2025-04-17 15:00:00+00:00,527.5490731125825
2025-04-17 16:00:00+00:00,460.90867395906014
2025-04-17 17:00:00+00:00,498.4103205353115
2025-04-17 18:00:00+00:00,460.29606995575966
2025-04-17 19:00:00+00:00,393.0407578969669
2025-04-21 13:00:00+00:00,278.0844815489975
2025-04-21 14:00:00+00:00,288.15448914899997
2025-04-21 15:00:00+00:00,276.2256212804662
2025-04-21 16:00:00+00:00,234.66853579846628
2025-04-21 17:00:00+00:00,239.8343257160569
2025-04-21 18:00:00+00:00,259.26085212919463
2025-04-21 19:00:00+00:00,314.3466215277644
2025-04-22 13:00:00+00:00,461.75693346634364
2025-04-22 14:00:00+00:00,482.5391455615006
2025-04-22 15:00:00+00:00,540.085332807023
2025-04-22 16:00:00+00:00,430.53084929759507
2025-04-22 17:00:00+00:00,475.9003479171352
2025-04-22 18:00:00+00:00,483.2769993584373
2025-04-22 19:00:00+00:00,471.96748516094937
2025-04-23 13:00:00+00:00,461.2711377843055
2025-04-23 14:00:00+00:00,452.53360952086183
2025-04-23 15:00:00+00:00,468.27317066553564
2025-04-23 16:00:00+00:00,516.7159102480415
2025-04-23 17:00:00+00:00,509.5843586598137
2025-04-23 18:00:00+00:00,475.071740341251
2025-04-23 19:00:00+00:00,523.5990363338628
2025-04-24 13:00:00+00:00,571.926538475121
2025-04-24 14:00:00+00:00,570.8206125246651
2025-04-24 15:00:00+00:00,592.7062330742301
2025-04-24 16:00:00+00:00,609.6740825390921
2025-04-24 17:00:00+00:00,611.3945252439393
2025-04-24 18:00:00+00:00,580.1661216545808
2025-04-24 19:00:00+00:00,617.7897553398303
2025-04-25 13:00:00+00:00,573.7722520108778
2025-04-25 14:00:00+00:00,596.1492503477288
2025-04-25 15:00:00+00:00,612.1327700060034
2025-04-25 16:00:00+00:00,576.1078005106839
2025-04-25 17:00:00+00:00,592.4537839942038
2025-04-25 18:00:00+00:00,594.3004670170203
2025-04-25 19:00:00+00:00,611.6363729310123
2025-04-28 13:00:00+00:00,663.2746737716709
2025-04-28 14:00:00+00:00,641.1385431161966
2025-04-28 15:00:00+00:00,682.4493401453481
2025-04-28 16:00:00+00:00,673.716252647683
2025-04-28 17:00:00+00:00,715.8909509020508
2025-04-28 18:00:00+00:00,717.1221214603914
2025-04-28 19:00:00+00:00,709.2533156344314
2025-04-29 13:00:00+00:00,600.1884690136116
2025-04-29 14:00:00+00:00,675.6874140525152
2025-04-29 15:00:00+00:00,666.2203244831192
2025-04-29 16:00:00+00:00,668.6799709184512
2025-04-29 17:00:00+00:00,683.7754287927661
2025-04-29 18:00:00+00:00,674.3373472174047
2025-04-29 19:00:00+00:00,619.5005556201452
2025-04-30 13:00:00+00:00,500.4722223549359
2025-04-30 14:00:00+00:00,498.3842912042529
2025-04-30 15:00:00+00:00,389.56746341632163
2025-04-30 16:00:00+00:00,412.6842545242242
2025-04-30 17:00:00+00:00,425.22668536448003
2025-04-30 18:00:00+00:00,437.5211078904852
2025-04-30 19:00:00+00:00,470.9663828155934
2025-05-01 13:00:00+00:00,621.7125847063542
2025-05-01 14:00:00+00:00,629.8282575070925
2025-05-01 15:00:00+00:00,541.788612007972
2025-05-01 16:00:00+00:00,549.6597477731766
2025-05-01 17:00:00+00:00,617.0389596920573
2025-05-01 18:00:00+00:00,603.0221711914774
2025-05-01 19:00:00+00:00,539.8247893114539
2025-05-02 13:00:00+00:00,395.24334263408366
2025-05-02 14:00:00+00:00,378.7672776260235
2025-05-02 15:00:00+00:00,401.88426162361674
2025-05-02 16:00:00+00:00,311.88620368081297
2025-05-02 17:00:00+00:00,431.51728993071237
2025-05-02 18:00:00+00:00,395.2472048779282
2025-05-02 19:00:00+00:00,437.7889900943695
2025-05-05 13:00:00+00:00,303.88921856276875
2025-05-05 14:00:00+00:00,303.7670490827219
2025-05-05 15:00:00+00:00,317.90680469799327
2025-05-05 16:00:00+00:00,301.0599728550689
2025-05-05 17:00:00+00:00,319.8723577745515
2025-05-05 18:00:00+00:00,328.3539761978889
2025-05-05 19:00:00+00:00,312.3683351944467
2025-05-06 13:00:00+00:00,373.6028376419843
2025-05-06 14:00:00+00:00,385.402405916233
2025-05-06 15:00:00+00:00,364.01010731382337
2025-05-06 16:00:00+00:00,351.21986623475686
2025-05-06 17:00:00+00:00,363.26782326974705
2025-05-06 18:00:00+00:00,346.54913397724704
2025-05-06 19:00:00+00:00,336.2183517767093
2025-05-07 13:00:00+00:00,261.016896925544
2025-05-07 14:00:00+00:00,244.0071023709495
2025-05-07 15:00:00+00:00,266.1362852832373
2025-05-07 16:00:00+00:00,289.0052661523324
2025-05-07 17:00:00+00:00,231.2181955210429
2025-05-07 18:00:00+00:00,249.53708130807294
2025-05-07 19:00:00+00:00,282.85746584876006
2025-05-08 13:00:00+00:00,415.68432549801366
2025-05-08 14:00:00+00:00,464.3432006661348
2025-05-08 15:00:00+00:00,495.94431006447536
2025-05-08 16:00:00+00:00,455.4919934890696
2025-05-08 17:00:00+00:00,423.52475609708034
2025-05-08 18:00:00+00:00,436.4348734586111
2025-05-08 19:00:00+00:00,372.12887094678774
2025-05-09 13:00:00+00:00,376.18775490822503
2025-05-09 14:00:00+00:00,392.04930316189393
2025-05-09 15:00:00+00:00,387.3766476346555
2025-05-09 16:00:00+00:00,400.6565623439941
2025-05-09 17:00:00+00:00,413.19764325070173
2025-05-09 18:00:00+00:00,440.9851509117268
2025-05-09 19:00:00+00:00,466.06538426966097
2025-05-12 13:00:00+00:00,721.328839490835
2025-05-12 14:00:00+00:00,623.8246219183683
2025-05-12 15:00:00+00:00,628.4965060339873
2025-05-12 16:00:00+00:00,650.260321845608
2025-05-12 17:00:00+00:00,628.497266926971
2025-05-12 18:00:00+00:00,639.6873115115095
2025-05-12 19:00:00+00:00,619.0307663981424
2025-05-13 13:00:00+00:00,710.5072423205538
2025-05-13 14:00:00+00:00,782.309751518874
2025-05-13 15:00:00+00:00,818.9509838530128
2025-05-13 16:00:00+00:00,854.6071254875857
2025-05-13 17:00:00+00:00,846.7390910732437
2025-05-13 18:00:00+00:00,840.1008719508102
2025-05-13 19:00:00+00:00,796.5734069942312
2025-05-14 13:00:00+00:00,687.7220186756315
2025-05-14 14:00:00+00:00,740.0165531386142
2025-05-14 15:00:00+00:00,733.5001335683725
2025-05-14 16:00:00+00:00,710.139175352786
2025-05-14 17:00:00+00:00,684.5640772244627
2025-05-14 18:00:00+00:00,724.7708872772752
2025-05-14 19:00:00+00:00,722.3108498768133
2025-05-15 13:00:00+00:00,617.7908966793016
2025-05-15 14:00:00+00:00,648.2856996806934
2025-05-15 15:00:00+00:00,710.7461867322029
2025-05-15 16:00:00+00:00,700.58169096714
2025-05-15 17:00:00+00:00,710.0143612702593
2025-05-15 18:00:00+00:00,740.0103819927966
2025-05-15 19:00:00+00:00,756.9788099795906
2025-05-16 13:00:00+00:00,726.2354201420172
2025-05-16 14:00:00+00:00,725.2511060398182
2025-05-16 15:00:00+00:00,747.7541361005606
2025-05-16 16:00:00+00:00,768.9022832996798
2025-05-16 17:00:00+00:00,745.4191661226853
2025-05-16 18:00:00+00:00,734.3551427434013
2025-05-16 19:00:00+00:00,729.4387215922485
2025-05-19 13:00:00+00:00,638.4455395602135
2025-05-19 14:00:00+00:00,626.8899297995678
2025-05-19 15:00:00+00:00,645.3333044872523
2025-05-19 16:00:00+00:00,667.710693789231
2025-05-19 17:00:00+00:00,635.3775765578981
2025-05-19 18:00:00+00:00,619.5107713808535
2025-05-19 19:00:00+00:00,648.7753522736926
2025-05-20 13:00:00+00:00,623.1992846583089
2025-05-20 14:00:00+00:00,630.328516825928
2025-05-20 15:00:00+00:00,618.2776618483981
2025-05-20 16:00:00+00:00,603.0323869521867
2025-05-20 17:00:00+00:00,581.1444626864043
2025-05-20 18:00:00+00:00,575.7356837422682
2025-05-20 19:00:00+00:00,571.556162605383
2025-05-21 13:00:00+00:00,528.276893519859
2025-05-21 14:00:00+00:00,525.3245088450549
2025-05-21 15:00:00+00:00,531.5960109332709
2025-05-21 16:00:00+00:00,535.1586958951582
2025-05-21 17:00:00+00:00,576.959739890761
2025-05-21 18:00:00+00:00,560.9739008118777
2025-05-21 19:00:00+00:00,517.9412901070572
2025-05-22 13:00:00+00:00,413.55199695601226
2025-05-22 14:00:00+00:00,406.78872092963013
2025-05-22 15:00:00+00:00,468.51289700743877
2025-05-22 16:00:00+00:00,476.26050284040934
2025-05-22 17:00:00+00:00,495.8105591857779
2025-05-22 18:00:00+00:00,515.4828007155837
2025-05-22 19:00:00+00:00,479.70217018035896
2025-05-23 13:00:00+00:00,426.84281512459114
2025-05-23 14:00:00+00:00,431.49279459781604
2025-05-23 15:00:00+00:00,410.84665110840047
2025-05-23 16:00:00+00:00,444.9052909297897
2025-05-23 17:00:00+00:00,455.8340438775483
2025-05-23 18:00:00+00:00,441.95539752800624
2025-05-23 19:00:00+00:00,440.97241765496705
2025-05-27 13:00:00+00:00,457.93968859789817
2025-05-27 14:00:00+00:00,488.4314059528174
2025-05-27 15:00:00+00:00,507.243790872301
2025-05-27 16:00:00+00:00,509.58051745324354
2025-05-27 17:00:00+00:00,502.6965937327767
2025-05-27 18:00:00+00:00,493.8440366221612
2025-05-27 19:00:00+00:00,505.64706565649107
2025-05-28 13:00:00+00:00,483.3943476262188
2025-05-28 14:00:00+00:00,468.02208203769436
2025-05-28 15:00:00+00:00,501.34228420733075
2025-05-28 16:00:00+00:00,505.2432631072154
2025-05-28 17:00:00+00:00,469.990543575429
2025-05-28 18:00:00+00:00,454.49551946629106
2025-05-28 19:00:00+00:00,463.8394805872197
2025-05-29 13:00:00+00:00,442.6915209449027
2025-05-29 14:00:00+00:00,429.90590300266234
2025-05-29 15:00:00+00:00,416.2571709512112
2025-05-29 16:00:00+00:00,435.80683633145424
2025-05-29 17:00:00+00:00,433.9013985078599
2025-05-29 18:00:00+00:00,427.93879139847684
2025-05-29 19:00:00+00:00,415.8908448821213
2025-05-30 13:00:00+00:00,381.82795718464524
2025-05-30 14:00:00+00:00,370.14786904197956
2025-05-30 15:00:00+00:00,308.1776131054014
2025-05-30 16:00:00+00:00,366.70234997682326
2025-05-30 17:00:00+00:00,357.2365998223386
2025-05-30 18:00:00+00:00,383.17996299387175
2025-05-30 19:00:00+00:00,350.22781727336314
2025-06-02 13:00:00+00:00,513.7538569256764
2025-06-02 14:00:00+00:00,521.8674188998839
2025-06-02 15:00:00+00:00,550.1478628758222
2025-06-02 16:00:00+00:00,545.3514950452991
2025-06-02 17:00:00+00:00,509.5724073333101
2025-06-02 18:00:00+00:00,523.8364432551613
2025-06-02 19:00:00+00:00,542.7698615009708
2025-06-03 13:00:00+00:00,583.8393946978674
2025-06-03 14:00:00+00:00,644.5838692916652
2025-06-03 15:00:00+00:00,664.3784731912065
2025-06-03 16:00:00+00:00,655.8437256205018
2025-06-03 17:00:00+00:00,624.1749415274223
2025-06-03 18:00:00+00:00,620.7311476565525
2025-06-03 19:00:00+00:00,611.6319216465977
2025-06-04 13:00:00+00:00,706.3020722991005
2025-06-04 14:00:00+00:00,594.6569420674996
2025-06-04 15:00:00+00:00,521.621521412164
2025-06-04 16:00:00+00:00,523.3431264937573
2025-06-04 17:00:00+00:00,515.6324417187205
2025-06-04 18:00:00+00:00,534.7782971543962
2025-06-04 19:00:00+00:00,505.3921147848064
2025-06-05 13:00:00+00:00,507.3586373484252
2025-06-05 14:00:00+00:00,525.0662795843408
2025-06-05 15:00:00+00:00,540.3130867851501
2025-06-05 16:00:00+00:00,556.1725136936502
2025-06-05 17:00:00+00:00,525.0645386856629
2025-06-05 18:00:00+00:00,513.8748850662508
2025-06-05 19:00:00+00:00,531.4557084622684
2025-06-06 13:00:00+00:00,703.1037744321851
2025-06-06 14:00:00+00:00,703.1016636056543
2025-06-06 15:00:00+00:00,718.3482884354139
2025-06-06 16:00:00+00:00,706.2974439765209
2025-06-06 17:00:00+00:00,704.9945832355039
2025-06-06 18:00:00+00:00,713.79839142879
2025-06-06 19:00:00+00:00,711.9551902033282
2025-06-09 13:00:00+00:00,687.9710550476483
2025-06-09 14:00:00+00:00,710.9753011625162
2025-06-09 15:00:00+00:00,728.5584439791404
2025-06-09 16:00:00+00:00,768.2959179802494
2025-06-09 17:00:00+00:00,771.7159240311095
2025-06-09 18:00:00+00:00,757.4513095873274
2025-06-09 19:00:00+00:00,724.4993514236231
2025-06-10 13:00:00+00:00,957.8729539235356
2025-06-10 14:00:00+00:00,957.8729539235356
2025-06-10 15:00:00+00:00,957.8729539235356
2025-06-10 16:00:00+00:00,957.8729539235356
2025-06-10 17:00:00+00:00,957.8729539235356
2025-06-10 18:00:00+00:00,957.8729539235356
2025-06-10 19:00:00+00:00,957.8729539235356
2025-06-11 13:00:00+00:00,957.8729539235356
2025-06-11 14:00:00+00:00,957.8729539235356
2025-06-11 15:00:00+00:00,957.8729539235356
2025-06-11 16:00:00+00:00,957.8729539235356
2025-06-11 17:00:00+00:00,957.8729539235356
2025-06-11 18:00:00+00:00,957.8729539235356
2025-06-11 19:00:00+00:00,957.8729539235356
2025-06-12 13:00:00+00:00,957.8729539235356
2025-06-12 14:00:00+00:00,957.8729539235356
2025-06-12 15:00:00+00:00,957.8729539235356
2025-06-12 16:00:00+00:00,957.8729539235356
2025-06-12 17:00:00+00:00,957.8729539235356
2025-06-12 18:00:00+00:00,957.8729539235356
2025-06-12 19:00:00+00:00,957.8729539235356
2025-06-13 13:00:00+00:00,957.8729539235356
2025-06-13 14:00:00+00:00,957.8729539235356
2025-06-13 15:00:00+00:00,957.8729539235356
2025-06-13 16:00:00+00:00,957.8729539235356
2025-06-13 17:00:00+00:00,957.8729539235356
2025-06-13 18:00:00+00:00,957.8729539235356
2025-06-13 19:00:00+00:00,957.8729539235356
2025-06-16 13:00:00+00:00,957.8729539235356
2025-06-16 14:00:00+00:00,957.8729539235356
2025-06-16 15:00:00+00:00,957.8729539235356
2025-06-16 16:00:00+00:00,957.8729539235356
2025-06-16 17:00:00+00:00,957.8729539235356
2025-06-16 18:00:00+00:00,957.8729539235356
2025-06-16 19:00:00+00:00,957.8729539235356
2025-06-17 13:00:00+00:00,957.8729539235356
2025-06-17 14:00:00+00:00,957.8729539235356
2025-06-17 15:00:00+00:00,957.8729539235356
2025-06-17 16:00:00+00:00,957.8729539235356
2025-06-17 17:00:00+00:00,957.8729539235356
2025-06-17 18:00:00+00:00,957.8729539235356
2025-06-17 19:00:00+00:00,957.8729539235356
2025-06-18 13:00:00+00:00,957.8729539235356
2025-06-18 14:00:00+00:00,957.8729539235356
2025-06-18 15:00:00+00:00,957.8729539235356
2025-06-18 16:00:00+00:00,957.8729539235356
2025-06-18 17:00:00+00:00,957.8729539235356
2025-06-18 18:00:00+00:00,957.8729539235356
2025-06-18 19:00:00+00:00,957.8729539235356
2025-06-20 13:00:00+00:00,957.8729539235356
2025-06-20 14:00:00+00:00,957.8729539235356
2025-06-20 15:00:00+00:00,957.8729539235356
2025-06-20 16:00:00+00:00,957.8729539235356
2025-06-20 17:00:00+00:00,957.8729539235356
2025-06-20 18:00:00+00:00,957.8729539235356
2025-06-20 19:00:00+00:00,957.8729539235356
2025-06-23 13:00:00+00:00,957.8729539235356
2025-06-23 14:00:00+00:00,957.8729539235356
2025-06-23 15:00:00+00:00,957.8729539235356
2025-06-23 16:00:00+00:00,957.8729539235356
2025-06-23 17:00:00+00:00,957.8729539235356
2025-06-23 18:00:00+00:00,957.8729539235356
2025-06-23 19:00:00+00:00,957.8729539235356
2025-06-24 13:00:00+00:00,957.8729539235356
2025-06-24 14:00:00+00:00,957.8729539235356
2025-06-24 15:00:00+00:00,957.8729539235356
2025-06-24 16:00:00+00:00,957.8729539235356
2025-06-24 17:00:00+00:00,957.8729539235356
2025-06-24 18:00:00+00:00,957.8729539235356
2025-06-24 19:00:00+00:00,957.8729539235356
2025-06-25 13:00:00+00:00,957.8729539235356
2025-06-25 14:00:00+00:00,957.8729539235356
2025-06-25 15:00:00+00:00,957.8729539235356
2025-06-25 16:00:00+00:00,957.8729539235356
2025-06-25 17:00:00+00:00,957.8729539235356
2025-06-25 18:00:00+00:00,957.8729539235356
2025-06-25 19:00:00+00:00,957.8729539235356
2025-06-26 13:00:00+00:00,957.8729539235356
2025-06-26 14:00:00+00:00,957.8729539235356
2025-06-26 15:00:00+00:00,957.8729539235356
2025-06-26 16:00:00+00:00,957.8729539235356
2025-06-26 17:00:00+00:00,957.8729539235356
2025-06-26 18:00:00+00:00,957.8729539235356
2025-06-26 19:00:00+00:00,957.8729539235356
2025-06-27 13:00:00+00:00,957.8729539235356
2025-06-27 14:00:00+00:00,957.8729539235356
2025-06-27 15:00:00+00:00,957.8729539235356
2025-06-27 16:00:00+00:00,957.8729539235356
2025-06-27 17:00:00+00:00,957.8729539235356
2025-06-27 18:00:00+00:00,957.8729539235356
2025-06-27 19:00:00+00:00,957.8729539235356
2025-06-30 13:00:00+00:00,957.8729539235356
2025-06-30 14:00:00+00:00,957.8729539235356
2025-06-30 15:00:00+00:00,957.8729539235356
2025-06-30 16:00:00+00:00,957.8729539235356
2025-06-30 17:00:00+00:00,957.8729539235356
2025-06-30 18:00:00+00:00,957.8729539235356
2025-06-30 19:00:00+00:00,957.8729539235356
2025-07-01 13:00:00+00:00,957.8729539235356
2025-07-01 14:00:00+00:00,957.8729539235356
2025-07-01 15:00:00+00:00,957.8729539235356
2025-07-01 16:00:00+00:00,957.8729539235356
2025-07-01 17:00:00+00:00,957.8729539235356
2025-07-01 18:00:00+00:00,957.8729539235356
2025-07-01 19:00:00+00:00,957.8729539235356
2025-07-02 13:00:00+00:00,957.8729539235356
2025-07-02 14:00:00+00:00,957.8729539235356
2025-07-02 15:00:00+00:00,957.8729539235356
2025-07-02 16:00:00+00:00,957.8729539235356
2025-07-02 17:00:00+00:00,957.8729539235356
2025-07-02 18:00:00+00:00,957.8729539235356
2025-07-02 19:00:00+00:00,957.8729539235356
2025-07-03 13:00:00+00:00,957.8729539235356
2025-07-03 14:00:00+00:00,957.8729539235356
2025-07-03 15:00:00+00:00,957.8729539235356
2025-07-07 13:00:00+00:00,957.8729539235356
2025-07-07 14:00:00+00:00,957.8729539235356
2025-07-07 15:00:00+00:00,957.8729539235356
2025-07-07 16:00:00+00:00,957.8729539235356
2025-07-07 17:00:00+00:00,957.8729539235356
2025-07-07 18:00:00+00:00,957.8729539235356
2025-07-07 19:00:00+00:00,957.8729539235356
2025-07-08 13:00:00+00:00,957.8729539235356
2025-07-08 14:00:00+00:00,957.8729539235356
2025-07-08 15:00:00+00:00,957.8729539235356
2025-07-08 16:00:00+00:00,957.8729539235356
2025-07-08 17:00:00+00:00,957.8729539235356
2025-07-08 18:00:00+00:00,957.8729539235356
2025-07-08 19:00:00+00:00,957.8729539235356
2025-07-09 13:00:00+00:00,957.8729539235356
2025-07-09 14:00:00+00:00,957.8729539235356
2025-07-09 15:00:00+00:00,957.8729539235356
2025-07-09 16:00:00+00:00,957.8729539235356
2025-07-09 17:00:00+00:00,957.8729539235356
2025-07-09 18:00:00+00:00,957.8729539235356
2025-07-09 19:00:00+00:00,957.8729539235356
2025-07-10 13:00:00+00:00,957.8729539235356
2025-07-10 14:00:00+00:00,957.8729539235356
2025-07-10 15:00:00+00:00,957.8729539235356
2025-07-10 16:00:00+00:00,957.8729539235356
2025-07-10 17:00:00+00:00,957.8729539235356
2025-07-10 18:00:00+00:00,957.8729539235356
2025-07-10 19:00:00+00:00,957.8729539235356
2025-07-11 13:00:00+00:00,957.8729539235356
2025-07-11 14:00:00+00:00,957.8729539235356
2025-07-11 15:00:00+00:00,957.8729539235356
2025-07-11 16:00:00+00:00,957.8729539235356
2025-07-11 17:00:00+00:00,957.8729539235356
2025-07-11 18:00:00+00:00,957.8729539235356
2025-07-11 19:00:00+00:00,957.8729539235356
2025-07-14 13:00:00+00:00,957.8729539235356
2025-07-14 14:00:00+00:00,957.8729539235356
2025-07-14 15:00:00+00:00,957.8729539235356
2025-07-14 16:00:00+00:00,957.8729539235356
2025-07-14 17:00:00+00:00,957.8729539235356
2025-07-14 18:00:00+00:00,957.8729539235356
2025-07-14 19:00:00+00:00,957.8729539235356
2025-07-15 13:00:00+00:00,957.8729539235356
2025-07-15 14:00:00+00:00,957.8729539235356
2025-07-15 15:00:00+00:00,957.8729539235356
2025-07-15 16:00:00+00:00,957.8729539235356
2025-07-15 17:00:00+00:00,957.8729539235356
2025-07-15 18:00:00+00:00,957.8729539235356
2025-07-15 19:00:00+00:00,957.8729539235356
2025-07-16 13:00:00+00:00,957.8729539235356
2025-07-16 14:00:00+00:00,957.8729539235356
2025-07-16 15:00:00+00:00,957.8729539235356
2025-07-16 16:00:00+00:00,957.8729539235356
2025-07-16 17:00:00+00:00,957.8729539235356
2025-07-16 18:00:00+00:00,957.8729539235356
2025-07-16 19:00:00+00:00,957.8729539235356
2025-07-17 13:00:00+00:00,957.8729539235356
2025-07-17 14:00:00+00:00,957.8729539235356
2025-07-17 15:00:00+00:00,957.8729539235356
2025-07-17 16:00:00+00:00,957.8729539235356
2025-07-17 17:00:00+00:00,957.8729539235356
2025-07-17 18:00:00+00:00,957.8729539235356
2025-07-17 19:00:00+00:00,957.8729539235356
2025-07-18 13:00:00+00:00,957.8729539235356
2025-07-18 14:00:00+00:00,957.8729539235356
2025-07-18 15:00:00+00:00,957.8729539235356
2025-07-18 16:00:00+00:00,957.8729539235356
2025-07-18 17:00:00+00:00,957.8729539235356
2025-07-18 18:00:00+00:00,957.8729539235356
2025-07-18 19:00:00+00:00,957.8729539235356
2025-07-21 13:00:00+00:00,957.8729539235356
2025-07-21 14:00:00+00:00,957.8729539235356
2025-07-21 15:00:00+00:00,957.8729539235356
2025-07-21 16:00:00+00:00,957.8729539235356
2025-07-21 17:00:00+00:00,957.8729539235356
2025-07-21 18:00:00+00:00,957.8729539235356
2025-07-21 19:00:00+00:00,957.8729539235356
2025-07-22 13:00:00+00:00,957.8729539235356
2025-07-22 14:00:00+00:00,957.8729539235356
2025-07-22 15:00:00+00:00,957.8729539235356
2025-07-22 16:00:00+00:00,957.8729539235356
2025-07-22 17:00:00+00:00,957.8729539235356
2025-07-22 18:00:00+00:00,957.8729539235356
2025-07-22 19:00:00+00:00,957.8729539235356
2025-07-23 13:00:00+00:00,957.8729539235356
2025-07-23 14:00:00+00:00,957.8729539235356
2025-07-23 15:00:00+00:00,957.8729539235356
2025-07-23 16:00:00+00:00,957.8729539235356
2025-07-23 17:00:00+00:00,957.8729539235356
2025-07-23 18:00:00+00:00,957.8729539235356
2025-07-23 19:00:00+00:00,957.8729539235356
2025-07-24 13:00:00+00:00,957.8729539235356
2025-07-24 14:00:00+00:00,957.8729539235356
2025-07-24 15:00:00+00:00,957.8729539235356
2025-07-24 16:00:00+00:00,957.8729539235356
2025-07-24 17:00:00+00:00,957.8729539235356
2025-07-24 18:00:00+00:00,957.8729539235356
2025-07-24 19:00:00+00:00,957.8729539235356
2025-07-25 13:00:00+00:00,957.8729539235356
2025-07-25 14:00:00+00:00,957.8729539235356
2025-07-25 15:00:00+00:00,957.8729539235356
2025-07-25 16:00:00+00:00,957.8729539235356
2025-07-25 17:00:00+00:00,957.8729539235356
2025-07-25 18:00:00+00:00,957.8729539235356
2025-07-25 19:00:00+00:00,957.8729539235356
2025-07-28 13:00:00+00:00,957.8729539235356
2025-07-28 14:00:00+00:00,957.8729539235356
2025-07-28 15:00:00+00:00,957.8729539235356
2025-07-28 16:00:00+00:00,957.8729539235356
2025-07-28 17:00:00+00:00,957.8729539235356
2025-07-28 18:00:00+00:00,957.8729539235356
2025-07-28 19:00:00+00:00,957.8729539235356
2025-07-29 13:00:00+00:00,957.8729539235356
2025-07-29 14:00:00+00:00,957.8729539235356
2025-07-29 15:00:00+00:00,957.8729539235356
2025-07-29 16:00:00+00:00,957.8729539235356
2025-07-29 17:00:00+00:00,957.8729539235356
2025-07-29 18:00:00+00:00,957.8729539235356
2025-07-29 19:00:00+00:00,957.8729539235356
2025-07-30 13:00:00+00:00,957.8729539235356
2025-07-30 14:00:00+00:00,957.8729539235356
2025-07-30 15:00:00+00:00,957.8729539235356
2025-07-30 16:00:00+00:00,957.8729539235356
2025-07-30 17:00:00+00:00,957.8729539235356
2025-07-30 18:00:00+00:00,957.8729539235356
2025-07-30 19:00:00+00:00,957.8729539235356
2025-07-31 13:00:00+00:00,957.8729539235356
2025-07-31 14:00:00+00:00,957.8729539235356
2025-07-31 15:00:00+00:00,957.8729539235356
2025-07-31 16:00:00+00:00,957.8729539235356
2025-07-31 17:00:00+00:00,957.8729539235356
2025-07-31 18:00:00+00:00,957.8729539235356
2025-07-31 19:00:00+00:00,957.8729539235356
2025-08-01 13:00:00+00:00,957.8729539235356
2025-08-01 14:00:00+00:00,957.8729539235356
2025-08-01 15:00:00+00:00,957.8729539235356
2025-08-01 16:00:00+00:00,957.8729539235356
2025-08-01 17:00:00+00:00,957.8729539235356
2025-08-01 18:00:00+00:00,957.8729539235356
2025-08-01 19:00:00+00:00,957.8729539235356
2025-08-04 13:00:00+00:00,957.8729539235356
2025-08-04 14:00:00+00:00,957.8729539235356
2025-08-04 15:00:00+00:00,957.8729539235356
2025-08-04 16:00:00+00:00,957.8729539235356
2025-08-04 17:00:00+00:00,957.8729539235356
2025-08-04 18:00:00+00:00,957.8729539235356
2025-08-04 19:00:00+00:00,957.8729539235356
2025-08-05 13:00:00+00:00,957.8729539235356
2025-08-05 14:00:00+00:00,957.8729539235356
2025-08-05 15:00:00+00:00,957.8729539235356
2025-08-05 16:00:00+00:00,957.8729539235356
2025-08-05 17:00:00+00:00,957.8729539235356
2025-08-05 18:00:00+00:00,957.8729539235356
2025-08-05 19:00:00+00:00,957.8729539235356
2025-08-06 13:00:00+00:00,957.8729539235356
2025-08-06 14:00:00+00:00,957.8729539235356
2025-08-06 15:00:00+00:00,957.8729539235356
2025-08-06 16:00:00+00:00,957.8729539235356
2025-08-06 17:00:00+00:00,957.8729539235356
2025-08-06 18:00:00+00:00,957.8729539235356
2025-08-06 19:00:00+00:00,957.8729539235356
2025-08-07 13:00:00+00:00,957.8729539235356
2025-08-07 14:00:00+00:00,957.8729539235356
2025-08-07 15:00:00+00:00,957.8729539235356
2025-08-07 16:00:00+00:00,957.8729539235356
2025-08-07 17:00:00+00:00,957.8729539235356
2025-08-07 18:00:00+00:00,957.8729539235356
2025-08-07 19:00:00+00:00,957.8729539235356
2025-08-08 13:00:00+00:00,957.8729539235356
2025-08-08 14:00:00+00:00,957.8729539235356
2025-08-08 15:00:00+00:00,957.8729539235356
2025-08-08 16:00:00+00:00,957.8729539235356
2025-08-08 17:00:00+00:00,957.8729539235356
2025-08-08 18:00:00+00:00,957.8729539235356
2025-08-08 19:00:00+00:00,957.8729539235356
2025-08-11 13:00:00+00:00,957.8729539235356
2025-08-11 14:00:00+00:00,957.8729539235356
2025-08-11 15:00:00+00:00,957.8729539235356
2025-08-11 16:00:00+00:00,957.8729539235356
2025-08-11 17:00:00+00:00,957.8729539235356
2025-08-11 18:00:00+00:00,957.8729539235356
2025-08-11 19:00:00+00:00,957.8729539235356
2025-08-12 13:00:00+00:00,957.8729539235356
2025-08-12 14:00:00+00:00,957.8729539235356
2025-08-12 15:00:00+00:00,957.8729539235356
2025-08-12 16:00:00+00:00,957.8729539235356
2025-08-12 17:00:00+00:00,957.8729539235356
2025-08-12 18:00:00+00:00,957.8729539235356
2025-08-12 19:00:00+00:00,957.8729539235356
2025-08-13 13:00:00+00:00,957.8729539235356
2025-08-13 14:00:00+00:00,957.8729539235356
2025-08-13 15:00:00+00:00,957.8729539235356
2025-08-13 16:00:00+00:00,957.8729539235356
2025-08-13 17:00:00+00:00,957.8729539235356
2025-08-13 18:00:00+00:00,957.8729539235356
2025-08-13 19:00:00+00:00,957.8729539235356
2025-08-14 13:00:00+00:00,957.8729539235356
2025-08-14 14:00:00+00:00,957.8729539235356
2025-08-14 15:00:00+00:00,957.8729539235356
2025-08-14 16:00:00+00:00,957.8729539235356
2025-08-14 17:00:00+00:00,957.8729539235356
2025-08-14 18:00:00+00:00,957.8729539235356
2025-08-14 19:00:00+00:00,957.8729539235356
2025-08-15 13:00:00+00:00,957.8729539235356
2025-08-15 14:00:00+00:00,957.8729539235356
2025-08-15 15:00:00+00:00,957.8729539235356
2025-08-15 16:00:00+00:00,957.8729539235356
2025-08-15 17:00:00+00:00,957.8729539235356
2025-08-15 18:00:00+00:00,957.8729539235356
2025-08-15 19:00:00+00:00,957.8729539235356
2025-08-18 13:00:00+00:00,957.8729539235356
2025-08-18 14:00:00+00:00,957.8729539235356
2025-08-18 15:00:00+00:00,957.8729539235356
2025-08-18 16:00:00+00:00,957.8729539235356
2025-08-18 17:00:00+00:00,957.8729539235356
2025-08-18 18:00:00+00:00,957.8729539235356
2025-08-18 19:00:00+00:00,957.8729539235356
2025-08-19 13:00:00+00:00,957.8729539235356
2025-08-19 14:00:00+00:00,957.8729539235356
2025-08-19 15:00:00+00:00,957.8729539235356
2025-08-19 16:00:00+00:00,957.8729539235356
2025-08-19 17:00:00+00:00,957.8729539235356
2025-08-19 18:00:00+00:00,957.8729539235356
2025-08-19 19:00:00+00:00,957.8729539235356
2025-08-20 13:00:00+00:00,957.8729539235356
2025-08-20 14:00:00+00:00,957.8729539235356
2025-08-20 15:00:00+00:00,957.8729539235356
2025-08-20 16:00:00+00:00,957.8729539235356
2025-08-20 17:00:00+00:00,957.8729539235356
2025-08-20 18:00:00+00:00,957.8729539235356
2025-08-20 19:00:00+00:00,957.8729539235356
2025-08-21 13:00:00+00:00,957.8729539235356
2025-08-21 14:00:00+00:00,957.8729539235356
2025-08-21 15:00:00+00:00,957.8729539235356
2025-08-21 16:00:00+00:00,957.8729539235356
2025-08-21 17:00:00+00:00,957.8729539235356
2025-08-21 18:00:00+00:00,957.8729539235356
2025-08-21 19:00:00+00:00,957.8729539235356
2025-08-22 13:00:00+00:00,957.8729539235356
2025-08-22 14:00:00+00:00,957.8729539235356
2025-08-22 15:00:00+00:00,957.8729539235356
2025-08-22 16:00:00+00:00,957.8729539235356
2025-08-22 17:00:00+00:00,957.8729539235356
2025-08-22 18:00:00+00:00,957.8729539235356
2025-08-22 19:00:00+00:00,957.8729539235356
2025-08-25 13:00:00+00:00,957.8729539235356
2025-08-25 14:00:00+00:00,957.8729539235356
2025-08-25 15:00:00+00:00,957.8729539235356
2025-08-25 16:00:00+00:00,957.8729539235356
2025-08-25 17:00:00+00:00,957.8729539235356
2025-08-25 18:00:00+00:00,957.8729539235356
2025-08-25 19:00:00+00:00,957.8729539235356
2025-08-26 13:00:00+00:00,957.8729539235356
2025-08-26 14:00:00+00:00,957.8729539235356
2025-08-26 15:00:00+00:00,957.8729539235356
2025-08-26 16:00:00+00:00,957.8729539235356
2025-08-26 17:00:00+00:00,957.8729539235356
2025-08-26 18:00:00+00:00,957.8729539235356
2025-08-26 19:00:00+00:00,957.8729539235356
2025-08-27 13:00:00+00:00,957.8729539235356
2025-08-27 14:00:00+00:00,957.8729539235356
2025-08-27 15:00:00+00:00,957.8729539235356
2025-08-27 16:00:00+00:00,957.8729539235356
2025-08-27 17:00:00+00:00,957.8729539235356
2025-08-27 18:00:00+00:00,957.8729539235356
2025-08-27 19:00:00+00:00,957.8729539235356
2025-08-28 13:00:00+00:00,957.8729539235356
2025-08-28 14:00:00+00:00,957.8729539235356
2025-08-28 15:00:00+00:00,957.8729539235356
2025-08-28 16:00:00+00:00,957.8729539235356
2025-08-28 17:00:00+00:00,957.8729539235356
2025-08-28 18:00:00+00:00,957.8729539235356
2025-08-28 19:00:00+00:00,957.8729539235356
2025-08-29 13:00:00+00:00,957.8729539235356
2025-08-29 14:00:00+00:00,957.8729539235356
2025-08-29 15:00:00+00:00,957.8729539235356
2025-08-29 16:00:00+00:00,957.8729539235356
2025-08-29 17:00:00+00:00,957.8729539235356
2025-08-29 18:00:00+00:00,957.8729539235356
2025-08-29 19:00:00+00:00,957.8729539235356
2025-09-02 13:00:00+00:00,957.8729539235356
2025-09-02 14:00:00+00:00,957.8729539235356
2025-09-02 15:00:00+00:00,957.8729539235356
2025-09-02 16:00:00+00:00,957.8729539235356
2025-09-02 17:00:00+00:00,957.8729539235356
2025-09-02 18:00:00+00:00,957.8729539235356
2025-09-02 19:00:00+00:00,957.8729539235356
2025-09-03 13:00:00+00:00,957.8729539235356
2025-09-03 14:00:00+00:00,957.8729539235356
2025-09-03 15:00:00+00:00,957.8729539235356
2025-09-03 16:00:00+00:00,957.8729539235356
2025-09-03 17:00:00+00:00,957.8729539235356
2025-09-03 18:00:00+00:00,957.8729539235356
2025-09-03 19:00:00+00:00,957.8729539235356
2025-09-04 13:00:00+00:00,957.8729539235356
2025-09-04 14:00:00+00:00,957.8729539235356
2025-09-04 15:00:00+00:00,957.8729539235356
2025-09-04 16:00:00+00:00,957.8729539235356
2025-09-04 17:00:00+00:00,957.8729539235356
2025-09-04 18:00:00+00:00,957.8729539235356
2025-09-04 19:00:00+00:00,957.8729539235356
2025-09-05 13:00:00+00:00,957.8729539235356
2025-09-05 14:00:00+00:00,957.8729539235356
2025-09-05 15:00:00+00:00,957.8729539235356
2025-09-05 16:00:00+00:00,957.8729539235356
2025-09-05 17:00:00+00:00,957.8729539235356
2025-09-05 18:00:00+00:00,957.8729539235356
2025-09-05 19:00:00+00:00,957.8729539235356
2025-09-08 13:00:00+00:00,957.8729539235356
2025-09-08 14:00:00+00:00,957.8729539235356
2025-09-08 15:00:00+00:00,957.8729539235356
2025-09-08 16:00:00+00:00,957.8729539235356
2025-09-08 17:00:00+00:00,957.8729539235356
2025-09-08 18:00:00+00:00,957.8729539235356
2025-09-08 19:00:00+00:00,957.8729539235356
2025-09-09 13:00:00+00:00,957.8729539235356
2025-09-09 14:00:00+00:00,957.8729539235356
2025-09-09 15:00:00+00:00,957.8729539235356
2025-09-09 16:00:00+00:00,957.8729539235356
2025-09-09 17:00:00+00:00,957.8729539235356
2025-09-09 18:00:00+00:00,957.8729539235356
2025-09-09 19:00:00+00:00,957.8729539235356
2025-09-10 13:00:00+00:00,957.8729539235356
2025-09-10 14:00:00+00:00,957.8729539235356
2025-09-10 15:00:00+00:00,957.8729539235356
2025-09-10 16:00:00+00:00,957.8729539235356
2025-09-10 17:00:00+00:00,957.8729539235356
2025-09-10 18:00:00+00:00,957.8729539235356
2025-09-10 19:00:00+00:00,957.8729539235356
2025-09-11 13:00:00+00:00,957.8729539235356
2025-09-11 14:00:00+00:00,957.8729539235356
2025-09-11 15:00:00+00:00,957.8729539235356
2025-09-11 16:00:00+00:00,957.8729539235356
2025-09-11 17:00:00+00:00,957.8729539235356
2025-09-11 18:00:00+00:00,957.8729539235356
2025-09-11 19:00:00+00:00,957.8729539235356
2025-09-12 13:00:00+00:00,957.8729539235356
2025-09-12 14:00:00+00:00,957.8729539235356
2025-09-12 15:00:00+00:00,957.8729539235356
2025-09-12 16:00:00+00:00,957.8729539235356
2025-09-12 17:00:00+00:00,957.8729539235356
2025-09-12 18:00:00+00:00,957.8729539235356
2025-09-12 19:00:00+00:00,957.8729539235356
2025-09-15 13:00:00+00:00,957.8729539235356
2025-09-15 14:00:00+00:00,957.8729539235356
2025-09-15 15:00:00+00:00,957.8729539235356
2025-09-15 16:00:00+00:00,957.8729539235356
2025-09-15 17:00:00+00:00,957.8729539235356
2025-09-15 18:00:00+00:00,957.8729539235356
2025-09-15 19:00:00+00:00,957.8729539235356
2025-09-16 13:00:00+00:00,957.8729539235356
2025-09-16 14:00:00+00:00,957.8729539235356
2025-09-16 15:00:00+00:00,957.8729539235356
2025-09-16 16:00:00+00:00,957.8729539235356
2025-09-16 17:00:00+00:00,957.8729539235356
2025-09-16 18:00:00+00:00,957.8729539235356
2025-09-16 19:00:00+00:00,957.8729539235356
2025-09-17 13:00:00+00:00,957.8729539235356
2025-09-17 14:00:00+00:00,957.8729539235356
2025-09-17 15:00:00+00:00,957.8729539235356
2025-09-17 16:00:00+00:00,957.8729539235356
2025-09-17 17:00:00+00:00,957.8729539235356
2025-09-17 18:00:00+00:00,957.8729539235356
2025-09-17 19:00:00+00:00,957.8729539235356
2025-09-18 13:00:00+00:00,957.8729539235356
2025-09-18 14:00:00+00:00,957.8729539235356
2025-09-18 15:00:00+00:00,957.8729539235356
2025-09-18 16:00:00+00:00,957.8729539235356
2025-09-18 17:00:00+00:00,957.8729539235356
2025-09-18 18:00:00+00:00,957.8729539235356
2025-09-18 19:00:00+00:00,957.8729539235356
2025-09-19 13:00:00+00:00,957.8729539235356
2025-09-19 14:00:00+00:00,957.8729539235356
2025-09-19 15:00:00+00:00,957.8729539235356
2025-09-19 16:00:00+00:00,957.8729539235356
2025-09-19 17:00:00+00:00,957.8729539235356
2025-09-19 18:00:00+00:00,957.8729539235356
2025-09-19 19:00:00+00:00,957.8729539235356
2025-09-22 13:00:00+00:00,957.8729539235356
2025-09-22 14:00:00+00:00,957.8729539235356
2025-09-22 15:00:00+00:00,957.8729539235356
2025-09-22 16:00:00+00:00,957.8729539235356
2025-09-22 17:00:00+00:00,957.8729539235356
2025-09-22 18:00:00+00:00,957.8729539235356
2025-09-22 19:00:00+00:00,957.8729539235356
2025-09-23 13:00:00+00:00,957.8729539235356
2025-09-23 14:00:00+00:00,957.8729539235356
2025-09-23 15:00:00+00:00,957.8729539235356
2025-09-23 16:00:00+00:00,957.8729539235356
2025-09-23 17:00:00+00:00,957.8729539235356
2025-09-23 18:00:00+00:00,957.8729539235356
2025-09-23 19:00:00+00:00,957.8729539235356
2025-09-24 13:00:00+00:00,957.8729539235356
2025-09-24 14:00:00+00:00,957.8729539235356
2025-09-24 15:00:00+00:00,957.8729539235356
2025-09-24 16:00:00+00:00,957.8729539235356
2025-09-24 17:00:00+00:00,957.8729539235356
2025-09-24 18:00:00+00:00,957.8729539235356
2025-09-24 19:00:00+00:00,957.8729539235356
2025-09-25 13:00:00+00:00,957.8729539235356
2025-09-25 14:00:00+00:00,957.8729539235356
2025-09-25 15:00:00+00:00,957.8729539235356
2025-09-25 16:00:00+00:00,957.8729539235356
2025-09-25 17:00:00+00:00,957.8729539235356
2025-09-25 18:00:00+00:00,957.8729539235356
2025-09-25 19:00:00+00:00,957.8729539235356
2025-09-26 13:00:00+00:00,957.8729539235356
2025-09-26 14:00:00+00:00,957.8729539235356
2025-09-26 15:00:00+00:00,957.8729539235356
2025-09-26 16:00:00+00:00,957.8729539235356
2025-09-26 17:00:00+00:00,957.8729539235356
2025-09-26 18:00:00+00:00,957.8729539235356
2025-09-26 19:00:00+00:00,957.8729539235356
2025-09-29 13:00:00+00:00,957.8729539235356
2025-09-29 14:00:00+00:00,957.8729539235356
2025-09-29 15:00:00+00:00,957.8729539235356
2025-09-29 16:00:00+00:00,957.8729539235356
2025-09-29 17:00:00+00:00,957.8729539235356
2025-09-29 18:00:00+00:00,957.8729539235356
2025-09-29 19:00:00+00:00,957.8729539235356
2025-09-30 13:00:00+00:00,957.8729539235356
2025-09-30 14:00:00+00:00,957.8729539235356
2025-09-30 15:00:00+00:00,957.8729539235356
2025-09-30 16:00:00+00:00,957.8729539235356
2025-09-30 17:00:00+00:00,957.8729539235356
2025-09-30 18:00:00+00:00,957.8729539235356
2025-09-30 19:00:00+00:00,957.8729539235356
2025-10-01 13:00:00+00:00,957.8729539235356
2025-10-01 14:00:00+00:00,957.8729539235356
2025-10-01 15:00:00+00:00,957.8729539235356
2025-10-01 16:00:00+00:00,957.8729539235356
2025-10-01 17:00:00+00:00,957.8729539235356
2025-10-01 18:00:00+00:00,957.8729539235356
2025-10-01 19:00:00+00:00,957.8729539235356
2025-10-02 13:00:00+00:00,957.8729539235356
2025-10-02 14:00:00+00:00,957.8729539235356
2025-10-02 15:00:00+00:00,957.8729539235356
2025-10-02 16:00:00+00:00,957.8729539235356
2025-10-02 17:00:00+00:00,957.8729539235356
2025-10-02 18:00:00+00:00,957.8729539235356
2025-10-02 19:00:00+00:00,957.8729539235356
2025-10-03 13:00:00+00:00,957.8729539235356
2025-10-03 14:00:00+00:00,957.8729539235356
2025-10-03 15:00:00+00:00,957.8729539235356
2025-10-03 16:00:00+00:00,957.8729539235356
2025-10-03 17:00:00+00:00,957.8729539235356
2025-10-03 18:00:00+00:00,957.8729539235356
2025-10-03 19:00:00+00:00,957.8729539235356
2025-10-06 13:00:00+00:00,957.8729539235356
2025-10-06 14:00:00+00:00,957.8729539235356
2025-10-06 15:00:00+00:00,957.8729539235356
2025-10-06 16:00:00+00:00,957.8729539235356
2025-10-06 17:00:00+00:00,957.8729539235356
2025-10-06 18:00:00+00:00,957.8729539235356
2025-10-06 19:00:00+00:00,957.8729539235356
2025-10-07 13:00:00+00:00,957.8729539235356
2025-10-07 14:00:00+00:00,957.8729539235356
2025-10-07 15:00:00+00:00,957.8729539235356
2025-10-07 16:00:00+00:00,957.8729539235356
2025-10-07 17:00:00+00:00,957.8729539235356
2025-10-07 18:00:00+00:00,957.8729539235356
2025-10-07 19:00:00+00:00,957.8729539235356
2025-10-08 13:00:00+00:00,957.8729539235356
2025-10-08 14:00:00+00:00,957.8729539235356
2025-10-08 15:00:00+00:00,957.8729539235356
2025-10-08 16:00:00+00:00,957.8729539235356
2025-10-08 17:00:00+00:00,957.8729539235356
2025-10-08 18:00:00+00:00,957.8729539235356
2025-10-08 19:00:00+00:00,957.8729539235356
2025-10-09 13:00:00+00:00,957.8729539235356
2025-10-09 14:00:00+00:00,957.8729539235356
2025-10-09 15:00:00+00:00,957.8729539235356
2025-10-09 16:00:00+00:00,957.8729539235356
2025-10-09 17:00:00+00:00,957.8729539235356
2025-10-09 18:00:00+00:00,957.8729539235356
2025-10-09 19:00:00+00:00,957.8729539235356
2025-10-10 13:00:00+00:00,957.8729539235356
2025-10-10 14:00:00+00:00,957.8729539235356
2025-10-10 15:00:00+00:00,957.8729539235356
2025-10-10 16:00:00+00:00,957.8729539235356
2025-10-10 17:00:00+00:00,957.8729539235356
2025-10-10 18:00:00+00:00,957.8729539235356
2025-10-10 19:00:00+00:00,957.8729539235356
2025-10-13 13:00:00+00:00,957.8729539235356
2025-10-13 14:00:00+00:00,957.8729539235356
2025-10-13 15:00:00+00:00,957.8729539235356
2025-10-13 16:00:00+00:00,957.8729539235356
2025-10-13 17:00:00+00:00,957.8729539235356
2025-10-13 18:00:00+00:00,957.8729539235356
2025-10-13 19:00:00+00:00,957.8729539235356
2025-10-14 13:00:00+00:00,957.8729539235356
2025-10-14 14:00:00+00:00,957.8729539235356
2025-10-14 15:00:00+00:00,957.8729539235356
2025-10-14 16:00:00+00:00,957.8729539235356
2025-10-14 17:00:00+00:00,957.8729539235356
2025-10-14 18:00:00+00:00,957.8729539235356
2025-10-14 19:00:00+00:00,957.8729539235356
2025-10-15 13:00:00+00:00,957.8729539235356
2025-10-15 14:00:00+00:00,957.8729539235356
2025-10-15 15:00:00+00:00,957.8729539235356
2025-10-15 16:00:00+00:00,957.8729539235356
2025-10-15 17:00:00+00:00,957.8729539235356
2025-10-15 18:00:00+00:00,957.8729539235356
2025-10-15 19:00:00+00:00,957.8729539235356
2025-10-16 13:00:00+00:00,957.8729539235356
2025-10-16 14:00:00+00:00,957.8729539235356
2025-10-16 15:00:00+00:00,957.8729539235356
2025-10-16 16:00:00+00:00,957.8729539235356
2025-10-16 17:00:00+00:00,957.8729539235356
2025-10-16 18:00:00+00:00,957.8729539235356
2025-10-16 19:00:00+00:00,957.8729539235356
2025-10-17 13:00:00+00:00,957.8729539235356
2025-10-17 14:00:00+00:00,957.8729539235356
2025-10-17 15:00:00+00:00,957.8729539235356
2025-10-17 16:00:00+00:00,957.8729539235356
2025-10-17 17:00:00+00:00,957.8729539235356
2025-10-17 18:00:00+00:00,957.8729539235356
2025-10-17 19:00:00+00:00,957.8729539235356
2025-10-20 13:00:00+00:00,957.8729539235356
2025-10-20 14:00:00+00:00,957.8729539235356
2025-10-20 15:00:00+00:00,957.8729539235356
2025-10-20 16:00:00+00:00,957.8729539235356
2025-10-20 17:00:00+00:00,957.8729539235356
2025-10-20 18:00:00+00:00,957.8729539235356
2025-10-20 19:00:00+00:00,957.8729539235356
2025-10-21 13:00:00+00:00,957.8729539235356
2025-10-21 14:00:00+00:00,957.8729539235356
2025-10-21 15:00:00+00:00,957.8729539235356
2025-10-21 16:00:00+00:00,957.8729539235356
2025-10-21 17:00:00+00:00,957.8729539235356
2025-10-21 18:00:00+00:00,957.8729539235356
2025-10-21 19:00:00+00:00,957.8729539235356
