Date,0
2024-01-02 14:00:00+00:00,0.0
2024-01-02 15:00:00+00:00,0.0
2024-01-02 16:00:00+00:00,0.0
2024-01-02 17:00:00+00:00,0.0
2024-01-02 18:00:00+00:00,0.0
2024-01-02 19:00:00+00:00,0.0
2024-01-02 20:00:00+00:00,0.0
2024-01-03 14:00:00+00:00,0.0
2024-01-03 15:00:00+00:00,0.0
2024-01-03 16:00:00+00:00,0.0
2024-01-03 17:00:00+00:00,0.0
2024-01-03 18:00:00+00:00,0.0
2024-01-03 19:00:00+00:00,0.0
2024-01-03 20:00:00+00:00,0.0
2024-01-04 14:00:00+00:00,0.0
2024-01-04 15:00:00+00:00,0.0
2024-01-04 16:00:00+00:00,0.0
2024-01-04 17:00:00+00:00,0.0
2024-01-04 18:00:00+00:00,0.0
2024-01-04 19:00:00+00:00,0.0
2024-01-04 20:00:00+00:00,0.0
2024-01-05 14:00:00+00:00,0.0
2024-01-05 15:00:00+00:00,0.0
2024-01-05 16:00:00+00:00,0.0
2024-01-05 17:00:00+00:00,0.0
2024-01-05 18:00:00+00:00,0.0
2024-01-05 19:00:00+00:00,0.0
2024-01-05 20:00:00+00:00,0.0
2024-01-08 14:00:00+00:00,0.0
2024-01-08 15:00:00+00:00,0.0
2024-01-08 16:00:00+00:00,0.0
2024-01-08 17:00:00+00:00,0.0
2024-01-08 18:00:00+00:00,0.0
2024-01-08 19:00:00+00:00,0.0
2024-01-08 20:00:00+00:00,0.0
2024-01-09 14:00:00+00:00,0.0
2024-01-09 15:00:00+00:00,0.0
2024-01-09 16:00:00+00:00,0.0
2024-01-09 17:00:00+00:00,0.0
2024-01-09 18:00:00+00:00,0.0
2024-01-09 19:00:00+00:00,0.0
2024-01-09 20:00:00+00:00,0.0
2024-01-10 14:00:00+00:00,0.0
2024-01-10 15:00:00+00:00,0.0
2024-01-10 16:00:00+00:00,0.0
2024-01-10 17:00:00+00:00,0.0
2024-01-10 18:00:00+00:00,0.0
2024-01-10 19:00:00+00:00,0.0
2024-01-10 20:00:00+00:00,0.0
2024-01-11 14:00:00+00:00,0.0
2024-01-11 15:00:00+00:00,0.0
2024-01-11 16:00:00+00:00,0.0
2024-01-11 17:00:00+00:00,0.0
2024-01-11 18:00:00+00:00,0.0
2024-01-11 19:00:00+00:00,0.0
2024-01-11 20:00:00+00:00,0.0
2024-01-12 14:00:00+00:00,0.0
2024-01-12 15:00:00+00:00,0.0
2024-01-12 16:00:00+00:00,0.0
2024-01-12 17:00:00+00:00,0.0
2024-01-12 18:00:00+00:00,0.0
2024-01-12 19:00:00+00:00,0.0
2024-01-12 20:00:00+00:00,0.0
2024-01-16 14:00:00+00:00,0.0
2024-01-16 15:00:00+00:00,0.0
2024-01-16 16:00:00+00:00,0.0
2024-01-16 17:00:00+00:00,0.0
2024-01-16 18:00:00+00:00,0.0
2024-01-16 19:00:00+00:00,0.0
2024-01-16 20:00:00+00:00,0.0
2024-01-17 14:00:00+00:00,0.0
2024-01-17 15:00:00+00:00,0.0
2024-01-17 16:00:00+00:00,0.0
2024-01-17 17:00:00+00:00,0.0
2024-01-17 18:00:00+00:00,0.0
2024-01-17 19:00:00+00:00,0.0
2024-01-17 20:00:00+00:00,0.0
2024-01-18 14:00:00+00:00,0.0
2024-01-18 15:00:00+00:00,0.0
2024-01-18 16:00:00+00:00,0.0
2024-01-18 17:00:00+00:00,0.0
2024-01-18 18:00:00+00:00,0.0
2024-01-18 19:00:00+00:00,0.0
2024-01-18 20:00:00+00:00,0.0
2024-01-19 14:00:00+00:00,0.0
2024-01-19 15:00:00+00:00,0.0
2024-01-19 16:00:00+00:00,0.0
2024-01-19 17:00:00+00:00,0.0
2024-01-19 18:00:00+00:00,0.0
2024-01-19 19:00:00+00:00,0.0
2024-01-19 20:00:00+00:00,0.0
2024-01-22 14:00:00+00:00,0.0
2024-01-22 15:00:00+00:00,0.0
2024-01-22 16:00:00+00:00,0.0
2024-01-22 17:00:00+00:00,0.0
2024-01-22 18:00:00+00:00,0.0
2024-01-22 19:00:00+00:00,0.0
2024-01-22 20:00:00+00:00,0.0
2024-01-23 14:00:00+00:00,0.0
2024-01-23 15:00:00+00:00,0.0
2024-01-23 16:00:00+00:00,0.0
2024-01-23 17:00:00+00:00,0.0
2024-01-23 18:00:00+00:00,0.0
2024-01-23 19:00:00+00:00,0.0
2024-01-23 20:00:00+00:00,0.0
2024-01-24 14:00:00+00:00,0.0
2024-01-24 15:00:00+00:00,0.0
2024-01-24 16:00:00+00:00,0.0
2024-01-24 17:00:00+00:00,0.0
2024-01-24 18:00:00+00:00,0.0
2024-01-24 19:00:00+00:00,0.0
2024-01-24 20:00:00+00:00,0.0
2024-01-25 14:00:00+00:00,0.0
2024-01-25 15:00:00+00:00,0.0
2024-01-25 16:00:00+00:00,0.0
2024-01-25 17:00:00+00:00,0.0
2024-01-25 18:00:00+00:00,0.0
2024-01-25 19:00:00+00:00,0.0
2024-01-25 20:00:00+00:00,0.0
2024-01-26 14:00:00+00:00,0.0
2024-01-26 15:00:00+00:00,0.0
2024-01-26 16:00:00+00:00,0.0
2024-01-26 17:00:00+00:00,0.0
2024-01-26 18:00:00+00:00,0.0
2024-01-26 19:00:00+00:00,0.0
2024-01-26 20:00:00+00:00,0.0
2024-01-29 14:00:00+00:00,0.0
2024-01-29 15:00:00+00:00,0.0
2024-01-29 16:00:00+00:00,0.0
2024-01-29 17:00:00+00:00,0.0
2024-01-29 18:00:00+00:00,0.0
2024-01-29 19:00:00+00:00,0.0
2024-01-29 20:00:00+00:00,0.0
2024-01-30 14:00:00+00:00,0.0
2024-01-30 15:00:00+00:00,0.0
2024-01-30 16:00:00+00:00,0.0
2024-01-30 17:00:00+00:00,0.0
2024-01-30 18:00:00+00:00,0.0
2024-01-30 19:00:00+00:00,0.0
2024-01-30 20:00:00+00:00,0.0
2024-01-31 14:00:00+00:00,0.0
2024-01-31 15:00:00+00:00,0.0
2024-01-31 16:00:00+00:00,0.0
2024-01-31 17:00:00+00:00,0.0
2024-01-31 18:00:00+00:00,0.0
2024-01-31 19:00:00+00:00,0.0
2024-01-31 20:00:00+00:00,0.0
2024-02-01 14:00:00+00:00,0.0
2024-02-01 15:00:00+00:00,0.0
2024-02-01 16:00:00+00:00,0.0
2024-02-01 17:00:00+00:00,0.0
2024-02-01 18:00:00+00:00,0.0
2024-02-01 19:00:00+00:00,0.0
2024-02-01 20:00:00+00:00,0.0
2024-02-02 14:00:00+00:00,0.0
2024-02-02 15:00:00+00:00,0.0
2024-02-02 16:00:00+00:00,0.0
2024-02-02 17:00:00+00:00,0.0
2024-02-02 18:00:00+00:00,0.0
2024-02-02 19:00:00+00:00,0.0
2024-02-02 20:00:00+00:00,0.0
2024-02-05 14:00:00+00:00,0.0
2024-02-05 15:00:00+00:00,0.0
2024-02-05 16:00:00+00:00,0.0
2024-02-05 17:00:00+00:00,0.0
2024-02-05 18:00:00+00:00,0.0
2024-02-05 19:00:00+00:00,0.0
2024-02-05 20:00:00+00:00,0.0
2024-02-06 14:00:00+00:00,0.0
2024-02-06 15:00:00+00:00,0.0
2024-02-06 16:00:00+00:00,0.0
2024-02-06 17:00:00+00:00,0.0
2024-02-06 18:00:00+00:00,0.0
2024-02-06 19:00:00+00:00,0.0
2024-02-06 20:00:00+00:00,0.0
2024-02-07 14:00:00+00:00,0.0
2024-02-07 15:00:00+00:00,0.0
2024-02-07 16:00:00+00:00,0.0
2024-02-07 17:00:00+00:00,0.0
2024-02-07 18:00:00+00:00,0.0
2024-02-07 19:00:00+00:00,0.0
2024-02-07 20:00:00+00:00,0.0
2024-02-08 14:00:00+00:00,0.0
2024-02-08 15:00:00+00:00,0.0
2024-02-08 16:00:00+00:00,0.0
2024-02-08 17:00:00+00:00,0.0
2024-02-08 18:00:00+00:00,0.0
2024-02-08 19:00:00+00:00,0.0
2024-02-08 20:00:00+00:00,0.0
2024-02-09 14:00:00+00:00,0.0
2024-02-09 15:00:00+00:00,0.0
2024-02-09 16:00:00+00:00,0.0
2024-02-09 17:00:00+00:00,0.0
2024-02-09 18:00:00+00:00,0.0
2024-02-09 19:00:00+00:00,0.0
2024-02-09 20:00:00+00:00,0.0
2024-02-12 14:00:00+00:00,0.0
2024-02-12 15:00:00+00:00,0.0
2024-02-12 16:00:00+00:00,0.0
2024-02-12 17:00:00+00:00,0.0
2024-02-12 18:00:00+00:00,0.0
2024-02-12 19:00:00+00:00,0.0
2024-02-12 20:00:00+00:00,0.0
2024-02-13 14:00:00+00:00,0.0
2024-02-13 15:00:00+00:00,0.0
2024-02-13 16:00:00+00:00,0.0
2024-02-13 17:00:00+00:00,0.0
2024-02-13 18:00:00+00:00,0.0
2024-02-13 19:00:00+00:00,0.0
2024-02-13 20:00:00+00:00,0.0
2024-02-14 14:00:00+00:00,0.0
2024-02-14 15:00:00+00:00,0.0
2024-02-14 16:00:00+00:00,0.0
2024-02-14 17:00:00+00:00,0.0
2024-02-14 18:00:00+00:00,0.0
2024-02-14 19:00:00+00:00,0.0
2024-02-14 20:00:00+00:00,0.0
2024-02-15 14:00:00+00:00,0.0
2024-02-15 15:00:00+00:00,0.0
2024-02-15 16:00:00+00:00,0.0
2024-02-15 17:00:00+00:00,0.0
2024-02-15 18:00:00+00:00,0.0
2024-02-15 19:00:00+00:00,0.0
2024-02-15 20:00:00+00:00,0.0
2024-02-16 14:00:00+00:00,0.0
2024-02-16 15:00:00+00:00,0.0
2024-02-16 16:00:00+00:00,0.0
2024-02-16 17:00:00+00:00,0.0
2024-02-16 18:00:00+00:00,0.0
2024-02-16 19:00:00+00:00,0.0
2024-02-16 20:00:00+00:00,0.0
2024-02-20 14:00:00+00:00,0.0
2024-02-20 15:00:00+00:00,0.0
2024-02-20 16:00:00+00:00,0.0
2024-02-20 17:00:00+00:00,0.0
2024-02-20 18:00:00+00:00,0.0
2024-02-20 19:00:00+00:00,0.0
2024-02-20 20:00:00+00:00,0.0
2024-02-21 14:00:00+00:00,0.0
2024-02-21 15:00:00+00:00,0.0
2024-02-21 16:00:00+00:00,0.0
2024-02-21 17:00:00+00:00,0.0
2024-02-21 18:00:00+00:00,0.0
2024-02-21 19:00:00+00:00,0.0
2024-02-21 20:00:00+00:00,0.0
2024-02-22 14:00:00+00:00,0.0
2024-02-22 15:00:00+00:00,0.0
2024-02-22 16:00:00+00:00,0.0
2024-02-22 17:00:00+00:00,0.0
2024-02-22 18:00:00+00:00,0.0
2024-02-22 19:00:00+00:00,0.0
2024-02-22 20:00:00+00:00,0.0
2024-02-23 14:00:00+00:00,0.0
2024-02-23 15:00:00+00:00,0.0
2024-02-23 16:00:00+00:00,0.0
2024-02-23 17:00:00+00:00,0.0
2024-02-23 18:00:00+00:00,0.0
2024-02-23 19:00:00+00:00,0.0
2024-02-23 20:00:00+00:00,0.0
2024-02-26 14:00:00+00:00,0.0
2024-02-26 15:00:00+00:00,0.0
2024-02-26 16:00:00+00:00,0.0
2024-02-26 17:00:00+00:00,0.0
2024-02-26 18:00:00+00:00,0.0
2024-02-26 19:00:00+00:00,0.0
2024-02-26 20:00:00+00:00,0.0
2024-02-27 14:00:00+00:00,0.0
2024-02-27 15:00:00+00:00,0.0
2024-02-27 16:00:00+00:00,0.0
2024-02-27 17:00:00+00:00,0.0
2024-02-27 18:00:00+00:00,0.0
2024-02-27 19:00:00+00:00,0.0
2024-02-27 20:00:00+00:00,0.0
2024-02-28 14:00:00+00:00,0.0
2024-02-28 15:00:00+00:00,0.0
2024-02-28 16:00:00+00:00,0.0
2024-02-28 17:00:00+00:00,0.0
2024-02-28 18:00:00+00:00,0.0
2024-02-28 19:00:00+00:00,0.0
2024-02-28 20:00:00+00:00,0.0
2024-02-29 14:00:00+00:00,0.0
2024-02-29 15:00:00+00:00,0.0
2024-02-29 16:00:00+00:00,0.0
2024-02-29 17:00:00+00:00,0.0
2024-02-29 18:00:00+00:00,0.0
2024-02-29 19:00:00+00:00,0.0
2024-02-29 20:00:00+00:00,0.0
2024-03-01 14:00:00+00:00,0.0
2024-03-01 15:00:00+00:00,0.0
2024-03-01 16:00:00+00:00,0.0
2024-03-01 17:00:00+00:00,0.0
2024-03-01 18:00:00+00:00,0.0
2024-03-01 19:00:00+00:00,0.0
2024-03-01 20:00:00+00:00,0.0
2024-03-04 14:00:00+00:00,0.0
2024-03-04 15:00:00+00:00,0.0
2024-03-04 16:00:00+00:00,0.0
2024-03-04 17:00:00+00:00,0.0
2024-03-04 18:00:00+00:00,0.0
2024-03-04 19:00:00+00:00,0.0
2024-03-04 20:00:00+00:00,0.0
2024-03-05 14:00:00+00:00,0.0
2024-03-05 15:00:00+00:00,0.0
2024-03-05 16:00:00+00:00,0.0
2024-03-05 17:00:00+00:00,0.0
2024-03-05 18:00:00+00:00,0.0
2024-03-05 19:00:00+00:00,0.0
2024-03-05 20:00:00+00:00,0.0
2024-03-06 14:00:00+00:00,0.0
2024-03-06 15:00:00+00:00,0.0
2024-03-06 16:00:00+00:00,0.0
2024-03-06 17:00:00+00:00,0.0
2024-03-06 18:00:00+00:00,0.0
2024-03-06 19:00:00+00:00,0.0
2024-03-06 20:00:00+00:00,0.0
2024-03-07 14:00:00+00:00,0.0
2024-03-07 15:00:00+00:00,0.0
2024-03-07 16:00:00+00:00,0.0
2024-03-07 17:00:00+00:00,0.0
2024-03-07 18:00:00+00:00,0.0
2024-03-07 19:00:00+00:00,0.0
2024-03-07 20:00:00+00:00,0.0
2024-03-08 14:00:00+00:00,0.0
2024-03-08 15:00:00+00:00,0.0
2024-03-08 16:00:00+00:00,0.0
2024-03-08 17:00:00+00:00,0.0
2024-03-08 18:00:00+00:00,0.0
2024-03-08 19:00:00+00:00,0.0
2024-03-08 20:00:00+00:00,0.0
2024-03-11 13:00:00+00:00,0.0
2024-03-11 14:00:00+00:00,0.0
2024-03-11 15:00:00+00:00,0.0
2024-03-11 16:00:00+00:00,0.0
2024-03-11 17:00:00+00:00,0.0
2024-03-11 18:00:00+00:00,0.0
2024-03-11 19:00:00+00:00,0.0
2024-03-12 13:00:00+00:00,0.0
2024-03-12 14:00:00+00:00,0.0
2024-03-12 15:00:00+00:00,0.0
2024-03-12 16:00:00+00:00,0.0
2024-03-12 17:00:00+00:00,0.0
2024-03-12 18:00:00+00:00,0.0
2024-03-12 19:00:00+00:00,0.0
2024-03-13 13:00:00+00:00,0.0
2024-03-13 14:00:00+00:00,0.0
2024-03-13 15:00:00+00:00,0.0
2024-03-13 16:00:00+00:00,0.0
2024-03-13 17:00:00+00:00,0.0
2024-03-13 18:00:00+00:00,0.0
2024-03-13 19:00:00+00:00,0.0
2024-03-14 13:00:00+00:00,0.0
2024-03-14 14:00:00+00:00,0.0
2024-03-14 15:00:00+00:00,0.0
2024-03-14 16:00:00+00:00,0.0
2024-03-14 17:00:00+00:00,0.0
2024-03-14 18:00:00+00:00,0.0
2024-03-14 19:00:00+00:00,0.0
2024-03-15 13:00:00+00:00,0.0
2024-03-15 14:00:00+00:00,0.0
2024-03-15 15:00:00+00:00,0.0
2024-03-15 16:00:00+00:00,0.0
2024-03-15 17:00:00+00:00,0.0
2024-03-15 18:00:00+00:00,0.0
2024-03-15 19:00:00+00:00,0.0
2024-03-18 13:00:00+00:00,0.0
2024-03-18 14:00:00+00:00,0.0
2024-03-18 15:00:00+00:00,0.0
2024-03-18 16:00:00+00:00,0.0
2024-03-18 17:00:00+00:00,0.0
2024-03-18 18:00:00+00:00,0.0
2024-03-18 19:00:00+00:00,0.0
2024-03-19 13:00:00+00:00,0.0
2024-03-19 14:00:00+00:00,0.0
2024-03-19 15:00:00+00:00,0.0
2024-03-19 16:00:00+00:00,0.0
2024-03-19 17:00:00+00:00,0.0
2024-03-19 18:00:00+00:00,0.0
2024-03-19 19:00:00+00:00,0.0
2024-03-20 13:00:00+00:00,0.0
2024-03-20 14:00:00+00:00,0.0
2024-03-20 15:00:00+00:00,0.0
2024-03-20 16:00:00+00:00,0.0
2024-03-20 17:00:00+00:00,0.0
2024-03-20 18:00:00+00:00,0.0
2024-03-20 19:00:00+00:00,0.0
2024-03-21 13:00:00+00:00,0.0
2024-03-21 14:00:00+00:00,0.0
2024-03-21 15:00:00+00:00,0.0
2024-03-21 16:00:00+00:00,0.0
2024-03-21 17:00:00+00:00,0.0
2024-03-21 18:00:00+00:00,0.0
2024-03-21 19:00:00+00:00,0.0
2024-03-22 13:00:00+00:00,0.0
2024-03-22 14:00:00+00:00,0.0
2024-03-22 15:00:00+00:00,0.0
2024-03-22 16:00:00+00:00,0.0
2024-03-22 17:00:00+00:00,0.0
2024-03-22 18:00:00+00:00,0.0
2024-03-22 19:00:00+00:00,0.0
2024-03-25 13:00:00+00:00,0.0
2024-03-25 14:00:00+00:00,0.0
2024-03-25 15:00:00+00:00,0.0
2024-03-25 16:00:00+00:00,0.0
2024-03-25 17:00:00+00:00,0.0
2024-03-25 18:00:00+00:00,0.0
2024-03-25 19:00:00+00:00,0.0
2024-03-26 13:00:00+00:00,0.0
2024-03-26 14:00:00+00:00,0.0
2024-03-26 15:00:00+00:00,0.0
2024-03-26 16:00:00+00:00,0.0
2024-03-26 17:00:00+00:00,0.0
2024-03-26 18:00:00+00:00,0.0
2024-03-26 19:00:00+00:00,0.0
2024-03-27 13:00:00+00:00,0.0
2024-03-27 14:00:00+00:00,0.0
2024-03-27 15:00:00+00:00,0.0
2024-03-27 16:00:00+00:00,0.0
2024-03-27 17:00:00+00:00,0.0
2024-03-27 18:00:00+00:00,0.0
2024-03-27 19:00:00+00:00,0.0
2024-03-28 13:00:00+00:00,0.0
2024-03-28 14:00:00+00:00,0.0
2024-03-28 15:00:00+00:00,0.0
2024-03-28 16:00:00+00:00,0.0
2024-03-28 17:00:00+00:00,0.0
2024-03-28 18:00:00+00:00,0.0
2024-03-28 19:00:00+00:00,0.0
2024-04-01 13:00:00+00:00,0.0
2024-04-01 14:00:00+00:00,0.0
2024-04-01 15:00:00+00:00,0.0
2024-04-01 16:00:00+00:00,0.0
2024-04-01 17:00:00+00:00,0.0
2024-04-01 18:00:00+00:00,0.0
2024-04-01 19:00:00+00:00,0.0
2024-04-02 13:00:00+00:00,0.0
2024-04-02 14:00:00+00:00,0.0
2024-04-02 15:00:00+00:00,0.0
2024-04-02 16:00:00+00:00,0.0
2024-04-02 17:00:00+00:00,0.0
2024-04-02 18:00:00+00:00,0.0
2024-04-02 19:00:00+00:00,0.0
2024-04-03 13:00:00+00:00,0.0
2024-04-03 14:00:00+00:00,0.0
2024-04-03 15:00:00+00:00,0.0
2024-04-03 16:00:00+00:00,0.0
2024-04-03 17:00:00+00:00,0.0
2024-04-03 18:00:00+00:00,0.0
2024-04-03 19:00:00+00:00,0.0
2024-04-04 13:00:00+00:00,0.0
2024-04-04 14:00:00+00:00,0.0
2024-04-04 15:00:00+00:00,0.0
2024-04-04 16:00:00+00:00,0.0
2024-04-04 17:00:00+00:00,0.0
2024-04-04 18:00:00+00:00,0.0
2024-04-04 19:00:00+00:00,0.0
2024-04-05 13:00:00+00:00,0.0
2024-04-05 14:00:00+00:00,0.0
2024-04-05 15:00:00+00:00,0.0
2024-04-05 16:00:00+00:00,0.0
2024-04-05 17:00:00+00:00,0.0
2024-04-05 18:00:00+00:00,0.0
2024-04-05 19:00:00+00:00,0.0
2024-04-08 13:00:00+00:00,0.0
2024-04-08 14:00:00+00:00,0.0
2024-04-08 15:00:00+00:00,0.0
2024-04-08 16:00:00+00:00,0.0
2024-04-08 17:00:00+00:00,0.0
2024-04-08 18:00:00+00:00,0.0
2024-04-08 19:00:00+00:00,0.0
2024-04-09 13:00:00+00:00,0.0
2024-04-09 14:00:00+00:00,0.0
2024-04-09 15:00:00+00:00,0.0
2024-04-09 16:00:00+00:00,0.0
2024-04-09 17:00:00+00:00,0.0
2024-04-09 18:00:00+00:00,0.0
2024-04-09 19:00:00+00:00,0.0
2024-04-10 13:00:00+00:00,0.0
2024-04-10 14:00:00+00:00,0.0
2024-04-10 15:00:00+00:00,0.0
2024-04-10 16:00:00+00:00,0.0
2024-04-10 17:00:00+00:00,0.0
2024-04-10 18:00:00+00:00,0.0
2024-04-10 19:00:00+00:00,0.0
2024-04-11 13:00:00+00:00,0.0
2024-04-11 14:00:00+00:00,0.0
2024-04-11 15:00:00+00:00,0.0
2024-04-11 16:00:00+00:00,0.0
2024-04-11 17:00:00+00:00,0.0
2024-04-11 18:00:00+00:00,0.0
2024-04-11 19:00:00+00:00,0.0
2024-04-12 13:00:00+00:00,0.0
2024-04-12 14:00:00+00:00,0.0
2024-04-12 15:00:00+00:00,0.0
2024-04-12 16:00:00+00:00,0.0
2024-04-12 17:00:00+00:00,0.0
2024-04-12 18:00:00+00:00,0.0
2024-04-12 19:00:00+00:00,0.0
2024-04-15 13:00:00+00:00,0.0
2024-04-15 14:00:00+00:00,0.0
2024-04-15 15:00:00+00:00,0.0
2024-04-15 16:00:00+00:00,0.0
2024-04-15 17:00:00+00:00,0.0
2024-04-15 18:00:00+00:00,0.0
2024-04-15 19:00:00+00:00,0.0
2024-04-16 13:00:00+00:00,0.0
2024-04-16 14:00:00+00:00,0.0
2024-04-16 15:00:00+00:00,0.0
2024-04-16 16:00:00+00:00,0.0
2024-04-16 17:00:00+00:00,0.0
2024-04-16 18:00:00+00:00,0.0
2024-04-16 19:00:00+00:00,0.0
2024-04-17 13:00:00+00:00,0.0
2024-04-17 14:00:00+00:00,0.0
2024-04-17 15:00:00+00:00,0.0
2024-04-17 16:00:00+00:00,0.0
2024-04-17 17:00:00+00:00,0.0
2024-04-17 18:00:00+00:00,0.0
2024-04-17 19:00:00+00:00,0.0
2024-04-18 13:00:00+00:00,0.0
2024-04-18 14:00:00+00:00,0.0
2024-04-18 15:00:00+00:00,0.0
2024-04-18 16:00:00+00:00,0.0
2024-04-18 17:00:00+00:00,0.0
2024-04-18 18:00:00+00:00,0.0
2024-04-18 19:00:00+00:00,0.0
2024-04-19 13:00:00+00:00,0.0
2024-04-19 14:00:00+00:00,0.0
2024-04-19 15:00:00+00:00,0.0
2024-04-19 16:00:00+00:00,0.0
2024-04-19 17:00:00+00:00,0.0
2024-04-19 18:00:00+00:00,0.0
2024-04-19 19:00:00+00:00,0.0
2024-04-22 13:00:00+00:00,0.0
2024-04-22 14:00:00+00:00,0.0
2024-04-22 15:00:00+00:00,0.0
2024-04-22 16:00:00+00:00,0.0
2024-04-22 17:00:00+00:00,0.0
2024-04-22 18:00:00+00:00,0.0
2024-04-22 19:00:00+00:00,0.0
2024-04-23 13:00:00+00:00,0.0
2024-04-23 14:00:00+00:00,0.0
2024-04-23 15:00:00+00:00,0.0
2024-04-23 16:00:00+00:00,0.0
2024-04-23 17:00:00+00:00,0.0
2024-04-23 18:00:00+00:00,0.0
2024-04-23 19:00:00+00:00,0.0
2024-04-24 13:00:00+00:00,0.0
2024-04-24 14:00:00+00:00,0.0
2024-04-24 15:00:00+00:00,0.0
2024-04-24 16:00:00+00:00,0.0
2024-04-24 17:00:00+00:00,0.0
2024-04-24 18:00:00+00:00,0.0
2024-04-24 19:00:00+00:00,0.0
2024-04-25 13:00:00+00:00,0.0
2024-04-25 14:00:00+00:00,0.0
2024-04-25 15:00:00+00:00,0.0
2024-04-25 16:00:00+00:00,0.0
2024-04-25 17:00:00+00:00,0.0
2024-04-25 18:00:00+00:00,0.0
2024-04-25 19:00:00+00:00,0.0
2024-04-26 13:00:00+00:00,0.0
2024-04-26 14:00:00+00:00,0.0
2024-04-26 15:00:00+00:00,0.0
2024-04-26 16:00:00+00:00,0.0
2024-04-26 17:00:00+00:00,0.0
2024-04-26 18:00:00+00:00,0.0
2024-04-26 19:00:00+00:00,0.0
2024-04-29 13:00:00+00:00,0.0
2024-04-29 14:00:00+00:00,0.0
2024-04-29 15:00:00+00:00,0.0
2024-04-29 16:00:00+00:00,0.0
2024-04-29 17:00:00+00:00,0.0
2024-04-29 18:00:00+00:00,0.0
2024-04-29 19:00:00+00:00,0.0
2024-04-30 13:00:00+00:00,0.0
2024-04-30 14:00:00+00:00,0.0
2024-04-30 15:00:00+00:00,0.0
2024-04-30 16:00:00+00:00,0.0
2024-04-30 17:00:00+00:00,0.0
2024-04-30 18:00:00+00:00,0.0
2024-04-30 19:00:00+00:00,0.0
2024-05-01 13:00:00+00:00,0.0
2024-05-01 14:00:00+00:00,0.0
2024-05-01 15:00:00+00:00,0.0
2024-05-01 16:00:00+00:00,0.0
2024-05-01 17:00:00+00:00,0.0
2024-05-01 18:00:00+00:00,0.0
2024-05-01 19:00:00+00:00,0.0
2024-05-02 13:00:00+00:00,0.0
2024-05-02 14:00:00+00:00,0.0
2024-05-02 15:00:00+00:00,0.0
2024-05-02 16:00:00+00:00,0.0
2024-05-02 17:00:00+00:00,0.0
2024-05-02 18:00:00+00:00,0.0
2024-05-02 19:00:00+00:00,0.0
2024-05-03 13:00:00+00:00,0.0
2024-05-03 14:00:00+00:00,0.0
2024-05-03 15:00:00+00:00,0.0
2024-05-03 16:00:00+00:00,0.0
2024-05-03 17:00:00+00:00,0.0
2024-05-03 18:00:00+00:00,0.0
2024-05-03 19:00:00+00:00,0.0
2024-05-06 13:00:00+00:00,0.0
2024-05-06 14:00:00+00:00,0.0
2024-05-06 15:00:00+00:00,0.0
2024-05-06 16:00:00+00:00,0.0
2024-05-06 17:00:00+00:00,0.0
2024-05-06 18:00:00+00:00,0.0
2024-05-06 19:00:00+00:00,0.0
2024-05-07 13:00:00+00:00,0.0
2024-05-07 14:00:00+00:00,0.0
2024-05-07 15:00:00+00:00,0.0
2024-05-07 16:00:00+00:00,0.0
2024-05-07 17:00:00+00:00,0.0
2024-05-07 18:00:00+00:00,0.0
2024-05-07 19:00:00+00:00,0.0
2024-05-08 13:00:00+00:00,0.0
2024-05-08 14:00:00+00:00,0.0
2024-05-08 15:00:00+00:00,0.0
2024-05-08 16:00:00+00:00,0.0
2024-05-08 17:00:00+00:00,0.0
2024-05-08 18:00:00+00:00,0.0
2024-05-08 19:00:00+00:00,0.0
2024-05-09 13:00:00+00:00,0.0
2024-05-09 14:00:00+00:00,0.0
2024-05-09 15:00:00+00:00,0.0
2024-05-09 16:00:00+00:00,0.0
2024-05-09 17:00:00+00:00,0.0
2024-05-09 18:00:00+00:00,0.0
2024-05-09 19:00:00+00:00,0.0
2024-05-10 13:00:00+00:00,0.0
2024-05-10 14:00:00+00:00,0.0
2024-05-10 15:00:00+00:00,0.0
2024-05-10 16:00:00+00:00,0.0
2024-05-10 17:00:00+00:00,0.0
2024-05-10 18:00:00+00:00,0.0
2024-05-10 19:00:00+00:00,0.0
2024-05-13 13:00:00+00:00,0.0
2024-05-13 14:00:00+00:00,0.0
2024-05-13 15:00:00+00:00,0.0
2024-05-13 16:00:00+00:00,0.0
2024-05-13 17:00:00+00:00,0.0
2024-05-13 18:00:00+00:00,0.0
2024-05-13 19:00:00+00:00,0.0
2024-05-14 13:00:00+00:00,0.0
2024-05-14 14:00:00+00:00,0.0
2024-05-14 15:00:00+00:00,0.0
2024-05-14 16:00:00+00:00,0.0
2024-05-14 17:00:00+00:00,0.0
2024-05-14 18:00:00+00:00,0.0
2024-05-14 19:00:00+00:00,0.0
2024-05-15 13:00:00+00:00,0.0
2024-05-15 14:00:00+00:00,0.0
2024-05-15 15:00:00+00:00,0.0
2024-05-15 16:00:00+00:00,0.0
2024-05-15 17:00:00+00:00,0.0
2024-05-15 18:00:00+00:00,0.0
2024-05-15 19:00:00+00:00,0.0
2024-05-16 13:00:00+00:00,0.0
2024-05-16 14:00:00+00:00,0.0
2024-05-16 15:00:00+00:00,0.0
2024-05-16 16:00:00+00:00,0.0
2024-05-16 17:00:00+00:00,0.0
2024-05-16 18:00:00+00:00,0.0
2024-05-16 19:00:00+00:00,0.0
2024-05-17 13:00:00+00:00,0.0
2024-05-17 14:00:00+00:00,0.0
2024-05-17 15:00:00+00:00,0.0
2024-05-17 16:00:00+00:00,0.0
2024-05-17 17:00:00+00:00,0.0
2024-05-17 18:00:00+00:00,0.0
2024-05-17 19:00:00+00:00,0.0
2024-05-20 13:00:00+00:00,0.0
2024-05-20 14:00:00+00:00,0.0
2024-05-20 15:00:00+00:00,0.0
2024-05-20 16:00:00+00:00,0.0
2024-05-20 17:00:00+00:00,0.0
2024-05-20 18:00:00+00:00,0.0
2024-05-20 19:00:00+00:00,0.0
2024-05-21 13:00:00+00:00,0.0
2024-05-21 14:00:00+00:00,0.0
2024-05-21 15:00:00+00:00,0.0
2024-05-21 16:00:00+00:00,0.0
2024-05-21 17:00:00+00:00,0.0
2024-05-21 18:00:00+00:00,0.0
2024-05-21 19:00:00+00:00,0.0
2024-05-22 13:00:00+00:00,0.0
2024-05-22 14:00:00+00:00,0.0
2024-05-22 15:00:00+00:00,0.0
2024-05-22 16:00:00+00:00,0.0
2024-05-22 17:00:00+00:00,0.0
2024-05-22 18:00:00+00:00,0.0
2024-05-22 19:00:00+00:00,0.0
2024-05-23 13:00:00+00:00,0.0
2024-05-23 14:00:00+00:00,0.0
2024-05-23 15:00:00+00:00,0.0
2024-05-23 16:00:00+00:00,0.0
2024-05-23 17:00:00+00:00,0.0
2024-05-23 18:00:00+00:00,0.0
2024-05-23 19:00:00+00:00,0.0
2024-05-24 13:00:00+00:00,0.0
2024-05-24 14:00:00+00:00,0.0
2024-05-24 15:00:00+00:00,0.0
2024-05-24 16:00:00+00:00,0.0
2024-05-24 17:00:00+00:00,0.0
2024-05-24 18:00:00+00:00,0.0
2024-05-24 19:00:00+00:00,0.0
2024-05-28 13:00:00+00:00,0.0
2024-05-28 14:00:00+00:00,0.0
2024-05-28 15:00:00+00:00,0.0
2024-05-28 16:00:00+00:00,0.0
2024-05-28 17:00:00+00:00,0.0
2024-05-28 18:00:00+00:00,0.0
2024-05-28 19:00:00+00:00,0.0
2024-05-29 13:00:00+00:00,0.0
2024-05-29 14:00:00+00:00,0.0
2024-05-29 15:00:00+00:00,0.0
2024-05-29 16:00:00+00:00,0.0
2024-05-29 17:00:00+00:00,0.0
2024-05-29 18:00:00+00:00,0.0
2024-05-29 19:00:00+00:00,0.0
2024-05-30 13:00:00+00:00,0.0
2024-05-30 14:00:00+00:00,0.0
2024-05-30 15:00:00+00:00,0.0
2024-05-30 16:00:00+00:00,0.0
2024-05-30 17:00:00+00:00,0.0
2024-05-30 18:00:00+00:00,0.0
2024-05-30 19:00:00+00:00,0.0
2024-05-31 13:00:00+00:00,0.0
2024-05-31 14:00:00+00:00,0.0
2024-05-31 15:00:00+00:00,0.0
2024-05-31 16:00:00+00:00,0.0
2024-05-31 17:00:00+00:00,0.0
2024-05-31 18:00:00+00:00,0.0
2024-05-31 19:00:00+00:00,0.0
2024-06-03 13:00:00+00:00,0.0
2024-06-03 14:00:00+00:00,0.0
2024-06-03 15:00:00+00:00,0.0
2024-06-03 16:00:00+00:00,0.0
2024-06-03 17:00:00+00:00,0.0
2024-06-03 18:00:00+00:00,0.0
2024-06-03 19:00:00+00:00,0.0
2024-06-04 13:00:00+00:00,0.0
2024-06-04 14:00:00+00:00,0.0
2024-06-04 15:00:00+00:00,0.0
2024-06-04 16:00:00+00:00,0.0
2024-06-04 17:00:00+00:00,0.0
2024-06-04 18:00:00+00:00,0.0
2024-06-04 19:00:00+00:00,0.0
2024-06-05 13:00:00+00:00,0.0
2024-06-05 14:00:00+00:00,0.0
2024-06-05 17:00:00+00:00,0.0
2024-06-05 19:00:00+00:00,0.0
2024-06-06 13:00:00+00:00,0.0
2024-06-06 14:00:00+00:00,0.0
2024-06-07 13:00:00+00:00,0.0
2024-06-07 14:00:00+00:00,0.0
2024-06-07 15:00:00+00:00,0.0
2024-06-07 16:00:00+00:00,0.0
2024-06-07 17:00:00+00:00,0.0
2024-06-07 18:00:00+00:00,0.0
2024-06-07 19:00:00+00:00,0.0
2024-06-10 13:00:00+00:00,0.0
2024-06-10 14:00:00+00:00,0.0
2024-06-10 16:00:00+00:00,0.0
2024-06-10 17:00:00+00:00,0.0
2024-06-10 18:00:00+00:00,0.0
2024-06-10 19:00:00+00:00,0.0
2024-06-11 13:00:00+00:00,0.0
2024-06-11 14:00:00+00:00,0.0
2024-06-11 15:00:00+00:00,0.0
2024-06-11 17:00:00+00:00,0.0
2024-06-11 18:00:00+00:00,0.0
2024-06-11 19:00:00+00:00,0.0
2024-06-12 13:00:00+00:00,0.0
2024-06-12 15:00:00+00:00,0.0
2024-06-12 18:00:00+00:00,0.0
2024-06-12 19:00:00+00:00,0.0
2024-06-13 13:00:00+00:00,0.0
2024-06-13 14:00:00+00:00,0.0
2024-06-13 15:00:00+00:00,0.0
2024-06-13 17:00:00+00:00,0.0
2024-06-13 18:00:00+00:00,0.0
2024-06-13 19:00:00+00:00,0.0
2024-06-14 13:00:00+00:00,0.0
2024-06-14 14:00:00+00:00,0.0
2024-06-14 15:00:00+00:00,0.0
2024-06-14 17:00:00+00:00,0.0
2024-06-14 19:00:00+00:00,0.0
2024-06-17 13:00:00+00:00,0.0
2024-06-17 14:00:00+00:00,0.0
2024-06-17 16:00:00+00:00,0.0
2024-06-17 17:00:00+00:00,0.0
2024-06-17 18:00:00+00:00,0.0
2024-06-17 19:00:00+00:00,0.0
2024-06-18 15:00:00+00:00,0.0
2024-06-18 16:00:00+00:00,0.0
2024-06-18 17:00:00+00:00,0.0
2024-06-18 18:00:00+00:00,0.0
2024-06-18 19:00:00+00:00,0.0
2024-06-20 13:00:00+00:00,0.0
2024-06-20 15:00:00+00:00,0.0
2024-06-20 16:00:00+00:00,0.0
2024-06-20 17:00:00+00:00,0.0
2024-06-20 18:00:00+00:00,0.0
2024-06-21 13:00:00+00:00,0.0
2024-06-21 17:00:00+00:00,0.0
2024-06-21 19:00:00+00:00,0.0
2024-06-24 13:00:00+00:00,0.0
2024-06-24 14:00:00+00:00,0.0
2024-06-24 15:00:00+00:00,0.0
2024-06-24 19:00:00+00:00,0.0
2024-06-25 13:00:00+00:00,0.0
2024-06-25 14:00:00+00:00,0.0
2024-06-25 15:00:00+00:00,0.0
2024-06-25 16:00:00+00:00,0.0
2024-06-25 17:00:00+00:00,0.0
2024-06-25 19:00:00+00:00,0.0
2024-06-26 13:00:00+00:00,0.0
2024-06-26 14:00:00+00:00,0.0
2024-06-26 15:00:00+00:00,0.0
2024-06-26 16:00:00+00:00,0.0
2024-06-26 18:00:00+00:00,0.0
2024-06-26 19:00:00+00:00,0.0
2024-06-27 14:00:00+00:00,0.0
2024-06-27 18:00:00+00:00,0.0
2024-06-27 19:00:00+00:00,0.0
2024-06-28 13:00:00+00:00,0.0
2024-06-28 15:00:00+00:00,0.0
2024-06-28 17:00:00+00:00,0.0
2024-06-28 18:00:00+00:00,0.0
2024-06-28 19:00:00+00:00,0.0
2024-07-01 13:00:00+00:00,0.0
2024-07-01 14:00:00+00:00,0.0
2024-07-01 15:00:00+00:00,0.0
2024-07-01 17:00:00+00:00,0.0
2024-07-01 18:00:00+00:00,0.0
2024-07-02 13:00:00+00:00,0.0
2024-07-02 16:00:00+00:00,0.0
2024-07-02 18:00:00+00:00,0.0
2024-07-02 19:00:00+00:00,0.0
2024-07-03 13:00:00+00:00,0.0
2024-07-03 14:00:00+00:00,0.0
2024-07-03 15:00:00+00:00,0.0
2024-07-05 13:00:00+00:00,0.0
2024-07-05 15:00:00+00:00,0.0
2024-07-05 16:00:00+00:00,0.0
2024-07-05 18:00:00+00:00,0.0
2024-07-05 19:00:00+00:00,0.0
2024-07-08 13:00:00+00:00,0.0
2024-07-08 14:00:00+00:00,0.0
2024-07-08 15:00:00+00:00,0.0
2024-07-08 16:00:00+00:00,0.0
2024-07-08 17:00:00+00:00,0.0
2024-07-08 18:00:00+00:00,0.0
2024-07-08 19:00:00+00:00,0.0
2024-07-09 13:00:00+00:00,0.0
2024-07-09 14:00:00+00:00,0.0
2024-07-09 16:00:00+00:00,0.0
2024-07-09 17:00:00+00:00,0.0
2024-07-09 18:00:00+00:00,0.0
2024-07-10 13:00:00+00:00,0.0
2024-07-10 14:00:00+00:00,0.0
2024-07-10 15:00:00+00:00,0.0
2024-07-10 16:00:00+00:00,0.0
2024-07-10 17:00:00+00:00,0.0
2024-07-10 18:00:00+00:00,0.0
2024-07-10 19:00:00+00:00,0.0
2024-07-11 13:00:00+00:00,0.0
2024-07-11 14:00:00+00:00,0.0
2024-07-11 15:00:00+00:00,0.0
2024-07-11 16:00:00+00:00,0.0
2024-07-11 17:00:00+00:00,0.0
2024-07-11 18:00:00+00:00,0.0
2024-07-12 13:00:00+00:00,0.0
2024-07-12 14:00:00+00:00,0.0
2024-07-12 16:00:00+00:00,0.0
2024-07-15 14:00:00+00:00,0.0
2024-07-15 15:00:00+00:00,0.0
2024-07-15 16:00:00+00:00,0.0
2024-07-15 17:00:00+00:00,0.0
2024-07-15 18:00:00+00:00,0.0
2024-07-15 19:00:00+00:00,0.0
2024-07-16 13:00:00+00:00,0.0
2024-07-16 14:00:00+00:00,0.0
2024-07-16 17:00:00+00:00,0.0
2024-07-16 18:00:00+00:00,0.0
2024-07-16 19:00:00+00:00,0.0
2024-07-17 13:00:00+00:00,0.0
2024-07-17 14:00:00+00:00,0.0
2024-07-17 16:00:00+00:00,0.0
2024-07-17 17:00:00+00:00,0.0
2024-07-17 18:00:00+00:00,0.0
2024-07-17 19:00:00+00:00,0.0
2024-07-18 13:00:00+00:00,0.0
2024-07-18 14:00:00+00:00,0.0
2024-07-18 18:00:00+00:00,0.0
2024-07-18 19:00:00+00:00,0.0
2024-07-19 13:00:00+00:00,0.0
2024-07-19 14:00:00+00:00,0.0
2024-07-19 15:00:00+00:00,0.0
2024-07-19 17:00:00+00:00,0.0
2024-07-19 19:00:00+00:00,0.0
2024-07-22 13:00:00+00:00,0.0
2024-07-22 14:00:00+00:00,0.0
2024-07-22 15:00:00+00:00,0.0
2024-07-22 18:00:00+00:00,0.0
2024-07-22 19:00:00+00:00,0.0
2024-07-23 13:00:00+00:00,0.0
2024-07-23 15:00:00+00:00,0.0
2024-07-23 18:00:00+00:00,0.0
2024-07-23 19:00:00+00:00,0.0
2024-07-24 13:00:00+00:00,0.0
2024-07-24 14:00:00+00:00,0.0
2024-07-24 15:00:00+00:00,0.0
2024-07-24 16:00:00+00:00,0.0
2024-07-24 17:00:00+00:00,0.0
2024-07-24 18:00:00+00:00,0.0
2024-07-24 19:00:00+00:00,0.0
2024-07-25 13:00:00+00:00,0.0
2024-07-25 14:00:00+00:00,0.0
2024-07-25 15:00:00+00:00,0.0
2024-07-25 16:00:00+00:00,0.0
2024-07-25 17:00:00+00:00,0.0
2024-07-25 18:00:00+00:00,0.0
2024-07-25 19:00:00+00:00,0.0
2024-07-26 13:00:00+00:00,0.0
2024-07-26 14:00:00+00:00,0.0
2024-07-26 15:00:00+00:00,0.0
2024-07-26 16:00:00+00:00,0.0
2024-07-26 17:00:00+00:00,0.0
2024-07-26 18:00:00+00:00,0.0
2024-07-26 19:00:00+00:00,0.0
2024-07-29 13:00:00+00:00,0.0
2024-07-29 14:00:00+00:00,0.0
2024-07-29 15:00:00+00:00,0.0
2024-07-29 16:00:00+00:00,0.0
2024-07-29 18:00:00+00:00,0.0
2024-07-30 13:00:00+00:00,0.0
2024-07-30 14:00:00+00:00,0.0
2024-07-30 15:00:00+00:00,0.0
2024-07-30 16:00:00+00:00,0.0
2024-07-30 17:00:00+00:00,0.0
2024-07-30 18:00:00+00:00,0.0
2024-07-30 19:00:00+00:00,0.0
2024-07-31 13:00:00+00:00,0.0
2024-07-31 14:00:00+00:00,0.0
2024-07-31 16:00:00+00:00,0.0
2024-07-31 17:00:00+00:00,0.0
2024-07-31 18:00:00+00:00,0.0
2024-07-31 19:00:00+00:00,0.0
2024-08-01 13:00:00+00:00,0.0
2024-08-01 14:00:00+00:00,0.0
2024-08-01 15:00:00+00:00,0.0
2024-08-01 16:00:00+00:00,0.0
2024-08-01 17:00:00+00:00,0.0
2024-08-01 18:00:00+00:00,0.0
2024-08-01 19:00:00+00:00,0.0
2024-08-02 13:00:00+00:00,0.0
2024-08-02 14:00:00+00:00,0.0
2024-08-02 15:00:00+00:00,0.0
2024-08-02 16:00:00+00:00,0.0
2024-08-02 17:00:00+00:00,0.0
2024-08-02 19:00:00+00:00,0.0
2024-08-05 13:00:00+00:00,0.0
2024-08-05 14:00:00+00:00,0.0
2024-08-05 15:00:00+00:00,0.0
2024-08-05 16:00:00+00:00,0.0
2024-08-05 17:00:00+00:00,0.0
2024-08-05 18:00:00+00:00,0.0
2024-08-05 19:00:00+00:00,0.0
2024-08-06 13:00:00+00:00,0.0
2024-08-06 14:00:00+00:00,0.0
2024-08-06 15:00:00+00:00,0.0
2024-08-06 16:00:00+00:00,0.0
2024-08-06 17:00:00+00:00,0.0
2024-08-06 18:00:00+00:00,0.0
2024-08-06 19:00:00+00:00,0.0
2024-08-07 13:00:00+00:00,0.0
2024-08-07 14:00:00+00:00,0.0
2024-08-07 15:00:00+00:00,0.0
2024-08-07 16:00:00+00:00,0.0
2024-08-07 17:00:00+00:00,0.0
2024-08-07 19:00:00+00:00,0.0
2024-08-08 13:00:00+00:00,0.0
2024-08-08 14:00:00+00:00,0.0
2024-08-08 15:00:00+00:00,0.0
2024-08-08 16:00:00+00:00,0.0
2024-08-08 17:00:00+00:00,0.0
2024-08-08 18:00:00+00:00,0.0
2024-08-08 19:00:00+00:00,0.0
2024-08-09 13:00:00+00:00,0.0
2024-08-09 14:00:00+00:00,0.0
2024-08-09 15:00:00+00:00,0.0
2024-08-09 16:00:00+00:00,0.0
2024-08-09 17:00:00+00:00,0.0
2024-08-09 18:00:00+00:00,0.0
2024-08-12 14:00:00+00:00,0.0
2024-08-12 16:00:00+00:00,0.0
2024-08-12 17:00:00+00:00,0.0
2024-08-12 18:00:00+00:00,0.0
2024-08-12 19:00:00+00:00,0.0
2024-08-13 13:00:00+00:00,0.0
2024-08-13 16:00:00+00:00,0.0
2024-08-13 18:00:00+00:00,0.0
2024-08-13 19:00:00+00:00,0.0
2024-08-14 13:00:00+00:00,0.0
2024-08-14 14:00:00+00:00,0.0
2024-08-14 15:00:00+00:00,0.0
2024-08-14 18:00:00+00:00,0.0
2024-08-14 19:00:00+00:00,0.0
2024-08-15 13:00:00+00:00,0.0
2024-08-15 14:00:00+00:00,0.0
2024-08-15 16:00:00+00:00,0.0
2024-08-15 17:00:00+00:00,0.0
2024-08-15 18:00:00+00:00,0.0
2024-08-16 13:00:00+00:00,0.0
2024-08-16 14:00:00+00:00,0.0
2024-08-16 15:00:00+00:00,0.0
2024-08-16 17:00:00+00:00,0.0
2024-08-16 18:00:00+00:00,0.0
2024-08-16 19:00:00+00:00,0.0
2024-08-19 13:00:00+00:00,0.0
2024-08-19 14:00:00+00:00,0.0
2024-08-19 19:00:00+00:00,0.0
2024-08-20 13:00:00+00:00,0.0
2024-08-20 15:00:00+00:00,0.0
2024-08-20 17:00:00+00:00,0.0
2024-08-20 18:00:00+00:00,0.0
2024-08-21 13:00:00+00:00,0.0
2024-08-21 14:00:00+00:00,0.0
2024-08-21 15:00:00+00:00,0.0
2024-08-21 16:00:00+00:00,0.0
2024-08-21 17:00:00+00:00,0.0
2024-08-21 19:00:00+00:00,0.0
2024-08-22 13:00:00+00:00,0.0
2024-08-22 14:00:00+00:00,0.0
2024-08-22 15:00:00+00:00,0.0
2024-08-22 17:00:00+00:00,0.0
2024-08-22 19:00:00+00:00,0.0
2024-08-23 13:00:00+00:00,0.0
2024-08-23 14:00:00+00:00,0.0
2024-08-23 15:00:00+00:00,0.0
2024-08-23 16:00:00+00:00,0.0
2024-08-23 17:00:00+00:00,0.0
2024-08-23 18:00:00+00:00,0.0
2024-08-26 13:00:00+00:00,0.0
2024-08-26 14:00:00+00:00,0.0
2024-08-26 15:00:00+00:00,0.0
2024-08-26 18:00:00+00:00,0.0
2024-08-26 19:00:00+00:00,0.0
2024-08-27 13:00:00+00:00,0.0
2024-08-27 14:00:00+00:00,0.0
2024-08-27 16:00:00+00:00,0.0
2024-08-27 19:00:00+00:00,0.0
2024-08-28 16:00:00+00:00,0.0
2024-08-28 17:00:00+00:00,0.0
2024-08-28 19:00:00+00:00,0.0
2024-08-29 13:00:00+00:00,0.0
2024-08-29 14:00:00+00:00,0.0
2024-08-29 15:00:00+00:00,0.0
2024-08-29 16:00:00+00:00,0.0
2024-08-29 17:00:00+00:00,0.0
2024-08-29 19:00:00+00:00,0.0
2024-08-30 13:00:00+00:00,0.0
2024-08-30 14:00:00+00:00,0.0
2024-08-30 16:00:00+00:00,0.0
2024-08-30 19:00:00+00:00,0.0
2024-09-03 13:00:00+00:00,0.0
2024-09-03 14:00:00+00:00,0.0
2024-09-03 16:00:00+00:00,0.0
2024-09-03 17:00:00+00:00,0.0
2024-09-03 19:00:00+00:00,0.0
2024-09-04 13:00:00+00:00,0.0
2024-09-04 14:00:00+00:00,0.0
2024-09-04 19:00:00+00:00,0.0
2024-09-05 13:00:00+00:00,0.0
2024-09-05 14:00:00+00:00,0.0
2024-09-05 15:00:00+00:00,0.0
2024-09-05 16:00:00+00:00,0.0
2024-09-05 17:00:00+00:00,0.0
2024-09-05 19:00:00+00:00,0.0
2024-09-06 13:00:00+00:00,0.0
2024-09-06 14:00:00+00:00,0.0
2024-09-06 16:00:00+00:00,0.0
2024-09-06 18:00:00+00:00,0.0
2024-09-06 19:00:00+00:00,0.0
2024-09-09 13:00:00+00:00,0.0
2024-09-09 14:00:00+00:00,0.0
2024-09-09 15:00:00+00:00,0.0
2024-09-09 17:00:00+00:00,0.0
2024-09-09 18:00:00+00:00,0.0
2024-09-09 19:00:00+00:00,0.0
2024-09-10 13:00:00+00:00,0.0
2024-09-10 14:00:00+00:00,0.0
2024-09-10 15:00:00+00:00,0.0
2024-09-10 17:00:00+00:00,0.0
2024-09-10 18:00:00+00:00,0.0
2024-09-10 19:00:00+00:00,0.0
2024-09-11 13:00:00+00:00,0.0
2024-09-11 14:00:00+00:00,0.0
2024-09-11 15:00:00+00:00,0.0
2024-09-11 16:00:00+00:00,0.0
2024-09-11 19:00:00+00:00,0.0
2024-09-12 13:00:00+00:00,0.0
2024-09-12 14:00:00+00:00,0.0
2024-09-12 15:00:00+00:00,0.0
2024-09-12 16:00:00+00:00,0.0
2024-09-12 17:00:00+00:00,0.0
2024-09-12 18:00:00+00:00,0.0
2024-09-12 19:00:00+00:00,0.0
2024-09-13 13:00:00+00:00,0.0
2024-09-13 14:00:00+00:00,0.0
2024-09-13 15:00:00+00:00,0.0
2024-09-16 13:00:00+00:00,0.0
2024-09-16 14:00:00+00:00,0.0
2024-09-16 15:00:00+00:00,0.0
2024-09-16 16:00:00+00:00,0.0
2024-09-16 17:00:00+00:00,0.0
2024-09-16 18:00:00+00:00,0.0
2024-09-16 19:00:00+00:00,0.0
2024-09-17 13:00:00+00:00,0.0
2024-09-17 14:00:00+00:00,0.0
2024-09-17 16:00:00+00:00,0.0
2024-09-17 18:00:00+00:00,0.0
2024-09-17 19:00:00+00:00,0.0
2024-09-18 13:00:00+00:00,0.0
2024-09-18 14:00:00+00:00,0.0
2024-09-18 15:00:00+00:00,0.0
2024-09-18 17:00:00+00:00,0.0
2024-09-18 18:00:00+00:00,0.0
2024-09-18 19:00:00+00:00,0.0
2024-09-19 13:00:00+00:00,0.0
2024-09-19 14:00:00+00:00,0.0
2024-09-19 15:00:00+00:00,0.0
2024-09-19 17:00:00+00:00,0.0
2024-09-19 18:00:00+00:00,0.0
2024-09-20 13:00:00+00:00,0.0
2024-09-20 18:00:00+00:00,0.0
2024-09-20 19:00:00+00:00,0.0
2024-09-23 13:00:00+00:00,0.0
2024-09-23 14:00:00+00:00,0.0
2024-09-23 15:00:00+00:00,0.0
2024-09-23 16:00:00+00:00,0.0
2024-09-23 18:00:00+00:00,0.0
2024-09-23 19:00:00+00:00,0.0
2024-09-24 13:00:00+00:00,0.0
2024-09-24 14:00:00+00:00,0.0
2024-09-24 15:00:00+00:00,0.0
2024-09-24 18:00:00+00:00,0.0
2024-09-24 19:00:00+00:00,0.0
2024-09-25 13:00:00+00:00,0.0
2024-09-25 14:00:00+00:00,0.0
2024-09-25 16:00:00+00:00,0.0
2024-09-25 18:00:00+00:00,0.0
2024-09-26 13:00:00+00:00,0.0
2024-09-26 14:00:00+00:00,0.0
2024-09-26 15:00:00+00:00,0.0
2024-09-26 16:00:00+00:00,0.0
2024-09-26 17:00:00+00:00,0.0
2024-09-26 18:00:00+00:00,0.0
2024-09-26 19:00:00+00:00,0.0
2024-09-27 13:00:00+00:00,8.118629027686808
2024-09-27 14:00:00+00:00,8.141101394154184
2024-09-27 16:00:00+00:00,32.90828037885176
2024-09-27 17:00:00+00:00,23.554176249339363
2024-09-27 18:00:00+00:00,21.9414505838498
2024-09-27 19:00:00+00:00,42.82955199705887
2024-09-30 13:00:00+00:00,89.10573735285674
2024-09-30 14:00:00+00:00,81.13500520120401
2024-09-30 15:00:00+00:00,75.97062314241776
2024-09-30 16:00:00+00:00,83.670436730915
2024-09-30 17:00:00+00:00,92.10600146384209
2024-09-30 19:00:00+00:00,65.81359868511943
2024-10-01 13:00:00+00:00,60.15671667507068
2024-10-01 14:00:00+00:00,71.20493909955367
2024-10-01 15:00:00+00:00,59.56590008697631
2024-10-01 16:00:00+00:00,80.49161863920258
2024-10-01 17:00:00+00:00,69.8513441574001
2024-10-01 19:00:00+00:00,78.50891242093061
2024-10-02 13:00:00+00:00,69.15791856105194
2024-10-02 14:00:00+00:00,52.53358730698997
2024-10-02 15:00:00+00:00,62.46069744090703
2024-10-02 16:00:00+00:00,77.17067407260754
2024-10-02 18:00:00+00:00,57.981671498046154
2024-10-02 19:00:00+00:00,64.63421351251594
2024-10-03 13:00:00+00:00,131.87691824894864
2024-10-03 19:00:00+00:00,142.97761242840625
2024-10-04 13:00:00+00:00,185.32457810754113
2024-10-04 15:00:00+00:00,204.32821166765498
2024-10-04 16:00:00+00:00,200.6751293925382
2024-10-04 17:00:00+00:00,222.80273647898312
2024-10-04 18:00:00+00:00,213.4428186329356
2024-10-04 19:00:00+00:00,179.08226334586087
2024-10-07 13:00:00+00:00,215.59749223314077
2024-10-07 14:00:00+00:00,240.85697871448133
2024-10-07 16:00:00+00:00,249.44867267106738
2024-10-07 18:00:00+00:00,272.2580354519397
2024-10-08 13:00:00+00:00,192.70222572023778
2024-10-08 14:00:00+00:00,172.82323219906127
2024-10-08 15:00:00+00:00,169.03859485839752
2024-10-08 16:00:00+00:00,179.5627173205026
2024-10-08 17:00:00+00:00,163.55093982906106
2024-10-09 13:00:00+00:00,168.0254620044479
2024-10-09 14:00:00+00:00,171.67664024825962
2024-10-09 16:00:00+00:00,151.1552008549352
2024-10-10 13:00:00+00:00,134.5157381537925
2024-10-10 14:00:00+00:00,143.82295652320735
2024-10-10 15:00:00+00:00,144.96861419330733
2024-10-10 16:00:00+00:00,141.38225405843897
2024-10-11 13:00:00+00:00,63.635424182566254
2024-10-11 17:00:00+00:00,91.92340763253003
2024-10-14 13:00:00+00:00,49.33569902221879
2024-10-14 14:00:00+00:00,34.19590154217698
2024-10-14 15:00:00+00:00,34.098185660034396
2024-10-14 18:00:00+00:00,14.674762356052785
2024-10-14 19:00:00+00:00,9.361858603367304
2024-10-15 13:00:00+00:00,-37.41213586744684
2024-10-15 14:00:00+00:00,-26.93791683211002
2024-10-15 16:00:00+00:00,-48.07013443482679
2024-10-15 17:00:00+00:00,-46.24500950420037
2024-10-15 18:00:00+00:00,-14.435458030737777
2024-10-16 13:00:00+00:00,-10.936519808396795
2024-10-16 14:00:00+00:00,-20.41673744745584
2024-10-16 15:00:00+00:00,-43.85762553075047
2024-10-16 17:00:00+00:00,-78.13101747642241
2024-10-16 19:00:00+00:00,-83.15912112444607
2024-10-17 14:00:00+00:00,-112.99572494700371
2024-10-17 17:00:00+00:00,-97.76166038451373
2024-10-17 19:00:00+00:00,-111.50521143372875
2024-10-18 13:00:00+00:00,-87.11375891455948
2024-10-18 14:00:00+00:00,-98.2070164388784
2024-10-18 15:00:00+00:00,-111.80493395813622
2024-10-18 16:00:00+00:00,-111.73215109505375
2024-10-18 18:00:00+00:00,-95.58963164393398
2024-10-18 19:00:00+00:00,-120.56635010643095
2024-10-21 14:00:00+00:00,-50.23930542660467
2024-10-21 15:00:00+00:00,-67.48492927808479
2024-10-21 16:00:00+00:00,-76.72828877058399
2024-10-21 17:00:00+00:00,-77.41774232013334
2024-10-21 18:00:00+00:00,-92.79509980602919
2024-10-21 19:00:00+00:00,-87.65941090009228
2024-10-22 13:00:00+00:00,-34.053499292810656
2024-10-22 14:00:00+00:00,-58.273945564638225
2024-10-22 16:00:00+00:00,-67.55787816388806
2024-10-22 17:00:00+00:00,-72.95199839597066
2024-10-22 18:00:00+00:00,-69.51252239914201
2024-10-22 19:00:00+00:00,-86.57701135221649
2024-10-23 13:00:00+00:00,-77.47911893262616
2024-10-23 14:00:00+00:00,-46.78082906828488
2024-10-23 15:00:00+00:00,-49.11827266064499
2024-10-23 16:00:00+00:00,-43.03422720348197
2024-10-23 17:00:00+00:00,-21.82592570071043
2024-10-23 18:00:00+00:00,-34.728280428439334
2024-10-23 19:00:00+00:00,-8.722627067899218
2024-10-24 13:00:00+00:00,39.15504415984487
2024-10-24 14:00:00+00:00,55.76736994962123
2024-10-24 15:00:00+00:00,49.39078211001525
2024-10-24 16:00:00+00:00,47.692134018171004
2024-10-24 17:00:00+00:00,57.64144892507282
2024-10-24 18:00:00+00:00,55.1099865564831
2024-10-25 13:00:00+00:00,-4.2058475825442585
2024-10-25 15:00:00+00:00,16.18996944591482
2024-10-25 16:00:00+00:00,29.400943386822753
2024-10-25 19:00:00+00:00,56.916207751096046
2024-10-28 13:00:00+00:00,27.792540120442276
2024-10-28 14:00:00+00:00,49.23660661744872
2024-10-28 15:00:00+00:00,39.214982985102424
2024-10-28 16:00:00+00:00,36.602078877566456
2024-10-28 17:00:00+00:00,30.942813256355006
2024-10-28 18:00:00+00:00,32.30781401477273
2024-10-28 19:00:00+00:00,26.63431567796499
2024-10-29 13:00:00+00:00,36.87288052746852
2024-10-29 14:00:00+00:00,56.32827932694573
2024-10-29 15:00:00+00:00,50.74155015283669
2024-10-29 16:00:00+00:00,49.79678727835162
2024-10-29 17:00:00+00:00,37.82592679343527
2024-10-29 18:00:00+00:00,31.02678636918911
2024-10-29 19:00:00+00:00,37.83351121129913
2024-10-30 13:00:00+00:00,52.935475985810214
2024-10-30 14:00:00+00:00,58.72280443009006
2024-10-30 15:00:00+00:00,55.89727333575901
2024-10-30 16:00:00+00:00,70.41093420173785
2024-10-30 17:00:00+00:00,66.76922630309434
2024-10-30 18:00:00+00:00,57.402364633869254
2024-10-30 19:00:00+00:00,47.748999962441985
2024-10-31 13:00:00+00:00,283.417880533575
2024-10-31 15:00:00+00:00,283.417880533575
2024-10-31 18:00:00+00:00,283.417880533575
2024-10-31 19:00:00+00:00,283.417880533575
2024-11-01 13:00:00+00:00,283.417880533575
2024-11-01 15:00:00+00:00,283.417880533575
2024-11-01 17:00:00+00:00,283.417880533575
2024-11-01 18:00:00+00:00,283.417880533575
2024-11-01 19:00:00+00:00,283.417880533575
2024-11-04 14:00:00+00:00,283.417880533575
2024-11-04 16:00:00+00:00,283.417880533575
2024-11-04 18:00:00+00:00,283.417880533575
2024-11-04 19:00:00+00:00,283.417880533575
2024-11-04 20:00:00+00:00,283.417880533575
2024-11-05 14:00:00+00:00,283.417880533575
2024-11-05 15:00:00+00:00,283.417880533575
2024-11-05 16:00:00+00:00,283.417880533575
2024-11-05 18:00:00+00:00,283.417880533575
2024-11-05 19:00:00+00:00,283.417880533575
2024-11-05 20:00:00+00:00,283.417880533575
2024-11-06 14:00:00+00:00,283.417880533575
2024-11-06 15:00:00+00:00,283.417880533575
2024-11-06 16:00:00+00:00,283.417880533575
2024-11-06 17:00:00+00:00,283.417880533575
2024-11-06 19:00:00+00:00,283.417880533575
2024-11-06 20:00:00+00:00,283.417880533575
2024-11-07 14:00:00+00:00,283.417880533575
2024-11-07 15:00:00+00:00,283.417880533575
2024-11-07 17:00:00+00:00,283.417880533575
2024-11-07 18:00:00+00:00,283.417880533575
2024-11-07 19:00:00+00:00,283.417880533575
2024-11-08 14:00:00+00:00,283.417880533575
2024-11-08 15:00:00+00:00,283.417880533575
2024-11-08 16:00:00+00:00,283.417880533575
2024-11-08 17:00:00+00:00,283.417880533575
2024-11-08 18:00:00+00:00,283.417880533575
2024-11-08 19:00:00+00:00,283.417880533575
2024-11-08 20:00:00+00:00,283.417880533575
2024-11-11 14:00:00+00:00,283.417880533575
2024-11-11 15:00:00+00:00,283.417880533575
2024-11-11 18:00:00+00:00,283.417880533575
2024-11-11 19:00:00+00:00,283.417880533575
2024-11-11 20:00:00+00:00,283.417880533575
2024-11-12 14:00:00+00:00,283.417880533575
2024-11-12 15:00:00+00:00,283.417880533575
2024-11-12 16:00:00+00:00,283.417880533575
2024-11-12 17:00:00+00:00,283.417880533575
2024-11-12 18:00:00+00:00,283.417880533575
2024-11-12 19:00:00+00:00,283.417880533575
2024-11-12 20:00:00+00:00,283.417880533575
2024-11-13 14:00:00+00:00,283.417880533575
2024-11-13 15:00:00+00:00,283.417880533575
2024-11-13 17:00:00+00:00,283.417880533575
2024-11-13 18:00:00+00:00,283.417880533575
2024-11-13 19:00:00+00:00,283.417880533575
2024-11-13 20:00:00+00:00,283.417880533575
2024-11-14 15:00:00+00:00,283.417880533575
2024-11-14 16:00:00+00:00,283.417880533575
2024-11-14 17:00:00+00:00,283.417880533575
2024-11-14 18:00:00+00:00,283.417880533575
2024-11-14 19:00:00+00:00,283.417880533575
2024-11-14 20:00:00+00:00,283.417880533575
2024-11-15 14:00:00+00:00,283.417880533575
2024-11-15 15:00:00+00:00,283.417880533575
2024-11-15 16:00:00+00:00,283.417880533575
2024-11-15 17:00:00+00:00,283.417880533575
2024-11-15 18:00:00+00:00,283.417880533575
2024-11-15 19:00:00+00:00,283.417880533575
2024-11-15 20:00:00+00:00,283.417880533575
2024-11-18 14:00:00+00:00,283.417880533575
2024-11-18 15:00:00+00:00,283.417880533575
2024-11-18 17:00:00+00:00,283.417880533575
2024-11-18 18:00:00+00:00,283.417880533575
2024-11-18 19:00:00+00:00,283.417880533575
2024-11-18 20:00:00+00:00,283.417880533575
2024-11-19 14:00:00+00:00,283.417880533575
2024-11-19 15:00:00+00:00,283.417880533575
2024-11-19 16:00:00+00:00,283.417880533575
2024-11-19 17:00:00+00:00,283.417880533575
2024-11-19 18:00:00+00:00,283.417880533575
2024-11-19 19:00:00+00:00,283.417880533575
2024-11-19 20:00:00+00:00,283.417880533575
2024-11-20 14:00:00+00:00,283.417880533575
2024-11-20 15:00:00+00:00,283.417880533575
2024-11-20 16:00:00+00:00,283.417880533575
2024-11-20 17:00:00+00:00,283.417880533575
2024-11-20 18:00:00+00:00,283.417880533575
2024-11-20 19:00:00+00:00,283.417880533575
2024-11-20 20:00:00+00:00,283.417880533575
2024-11-21 14:00:00+00:00,283.417880533575
2024-11-21 15:00:00+00:00,283.417880533575
2024-11-21 16:00:00+00:00,283.417880533575
2024-11-21 17:00:00+00:00,283.417880533575
2024-11-21 18:00:00+00:00,283.417880533575
2024-11-21 19:00:00+00:00,283.417880533575
2024-11-21 20:00:00+00:00,283.417880533575
2024-11-22 14:00:00+00:00,283.417880533575
2024-11-22 15:00:00+00:00,283.417880533575
2024-11-22 16:00:00+00:00,283.417880533575
2024-11-22 18:00:00+00:00,283.417880533575
2024-11-22 19:00:00+00:00,283.417880533575
2024-11-25 14:00:00+00:00,283.417880533575
2024-11-25 15:00:00+00:00,283.417880533575
2024-11-25 16:00:00+00:00,283.417880533575
2024-11-25 17:00:00+00:00,283.417880533575
2024-11-25 18:00:00+00:00,283.417880533575
2024-11-25 19:00:00+00:00,283.417880533575
2024-11-25 20:00:00+00:00,283.417880533575
2024-11-26 14:00:00+00:00,283.417880533575
2024-11-26 15:00:00+00:00,283.417880533575
2024-11-26 16:00:00+00:00,283.417880533575
2024-11-26 17:00:00+00:00,283.417880533575
2024-11-26 18:00:00+00:00,283.417880533575
2024-11-26 19:00:00+00:00,283.417880533575
2024-11-26 20:00:00+00:00,283.417880533575
2024-11-27 14:00:00+00:00,283.417880533575
2024-11-27 15:00:00+00:00,283.417880533575
2024-11-27 16:00:00+00:00,283.417880533575
2024-11-27 17:00:00+00:00,283.417880533575
2024-11-27 18:00:00+00:00,283.417880533575
2024-11-27 19:00:00+00:00,283.417880533575
2024-11-27 20:00:00+00:00,283.417880533575
2024-11-29 14:00:00+00:00,283.417880533575
2024-11-29 15:00:00+00:00,283.417880533575
2024-11-29 16:00:00+00:00,283.417880533575
2024-12-02 14:00:00+00:00,283.417880533575
2024-12-02 15:00:00+00:00,283.417880533575
2024-12-02 17:00:00+00:00,283.417880533575
2024-12-02 18:00:00+00:00,283.417880533575
2024-12-02 19:00:00+00:00,283.417880533575
2024-12-02 20:00:00+00:00,283.417880533575
2024-12-03 14:00:00+00:00,283.417880533575
2024-12-03 15:00:00+00:00,283.417880533575
2024-12-03 16:00:00+00:00,283.417880533575
2024-12-03 17:00:00+00:00,283.417880533575
2024-12-03 18:00:00+00:00,283.417880533575
2024-12-03 19:00:00+00:00,283.417880533575
2024-12-03 20:00:00+00:00,283.417880533575
2024-12-04 14:00:00+00:00,283.417880533575
2024-12-04 15:00:00+00:00,283.417880533575
2024-12-04 16:00:00+00:00,283.417880533575
2024-12-04 17:00:00+00:00,283.417880533575
2024-12-04 18:00:00+00:00,283.417880533575
2024-12-04 19:00:00+00:00,283.417880533575
2024-12-05 14:00:00+00:00,283.417880533575
2024-12-05 15:00:00+00:00,283.417880533575
2024-12-05 16:00:00+00:00,283.417880533575
2024-12-05 17:00:00+00:00,283.417880533575
2024-12-05 18:00:00+00:00,283.417880533575
2024-12-05 19:00:00+00:00,283.417880533575
2024-12-05 20:00:00+00:00,283.417880533575
2024-12-06 14:00:00+00:00,283.417880533575
2024-12-06 15:00:00+00:00,283.417880533575
2024-12-06 16:00:00+00:00,283.417880533575
2024-12-06 17:00:00+00:00,283.417880533575
2024-12-06 18:00:00+00:00,283.417880533575
2024-12-06 20:00:00+00:00,283.417880533575
2024-12-09 14:00:00+00:00,283.417880533575
2024-12-09 15:00:00+00:00,283.417880533575
2024-12-09 16:00:00+00:00,283.417880533575
2024-12-09 17:00:00+00:00,283.417880533575
2024-12-09 19:00:00+00:00,283.417880533575
2024-12-09 20:00:00+00:00,283.417880533575
2024-12-10 14:00:00+00:00,283.417880533575
2024-12-10 15:00:00+00:00,283.417880533575
2024-12-10 16:00:00+00:00,283.417880533575
2024-12-10 18:00:00+00:00,283.417880533575
2024-12-10 19:00:00+00:00,283.417880533575
2024-12-11 14:00:00+00:00,283.417880533575
2024-12-11 15:00:00+00:00,283.417880533575
2024-12-11 16:00:00+00:00,283.417880533575
2024-12-11 17:00:00+00:00,283.417880533575
2024-12-11 18:00:00+00:00,283.417880533575
2024-12-11 19:00:00+00:00,283.417880533575
2024-12-11 20:00:00+00:00,283.417880533575
2024-12-12 14:00:00+00:00,283.417880533575
2024-12-12 15:00:00+00:00,283.417880533575
2024-12-12 16:00:00+00:00,283.417880533575
2024-12-12 18:00:00+00:00,283.417880533575
2024-12-12 19:00:00+00:00,283.417880533575
2024-12-12 20:00:00+00:00,283.417880533575
2024-12-13 16:00:00+00:00,283.417880533575
2024-12-13 17:00:00+00:00,283.417880533575
2024-12-13 19:00:00+00:00,283.417880533575
2024-12-13 20:00:00+00:00,283.417880533575
2024-12-16 14:00:00+00:00,283.417880533575
2024-12-16 15:00:00+00:00,283.417880533575
2024-12-16 16:00:00+00:00,283.417880533575
2024-12-16 17:00:00+00:00,283.417880533575
2024-12-16 18:00:00+00:00,283.417880533575
2024-12-16 19:00:00+00:00,283.417880533575
2024-12-16 20:00:00+00:00,283.417880533575
2024-12-17 14:00:00+00:00,283.417880533575
2024-12-17 15:00:00+00:00,283.417880533575
2024-12-17 16:00:00+00:00,283.417880533575
2024-12-17 17:00:00+00:00,283.417880533575
2024-12-17 20:00:00+00:00,283.417880533575
2024-12-18 14:00:00+00:00,283.417880533575
2024-12-18 15:00:00+00:00,283.417880533575
2024-12-18 16:00:00+00:00,283.417880533575
2024-12-18 18:00:00+00:00,283.417880533575
2024-12-18 19:00:00+00:00,283.417880533575
2024-12-18 20:00:00+00:00,229.75461321983084
2024-12-19 14:00:00+00:00,234.02116295654727
2024-12-19 15:00:00+00:00,255.88518064373847
2024-12-19 16:00:00+00:00,250.03835005620718
2024-12-19 17:00:00+00:00,252.00154795084862
2024-12-19 18:00:00+00:00,251.05409998086742
2024-12-19 19:00:00+00:00,212.68200947932598
2024-12-19 20:00:00+00:00,194.66419016100684
2024-12-20 14:00:00+00:00,203.68473219301447
2024-12-20 15:00:00+00:00,234.87546978312636
2024-12-20 16:00:00+00:00,269.7589080806988
2024-12-20 17:00:00+00:00,257.90255681213955
2024-12-20 18:00:00+00:00,249.82340716661912
2024-12-20 19:00:00+00:00,219.28362087895994
2024-12-20 20:00:00+00:00,291.1212302591965
2024-12-23 14:00:00+00:00,219.87404529979827
2024-12-23 15:00:00+00:00,173.6190900890643
2024-12-23 16:00:00+00:00,173.65558281433357
2024-12-23 17:00:00+00:00,205.09783819263006
2024-12-23 18:00:00+00:00,208.58798148053197
2024-12-23 19:00:00+00:00,219.07702761159806
2024-12-23 20:00:00+00:00,242.4781346891273
2024-12-24 14:00:00+00:00,244.1863628843957
2024-12-24 15:00:00+00:00,256.16620778055506
2024-12-24 16:00:00+00:00,281.3164789222552
2024-12-26 14:00:00+00:00,304.54441900439616
2024-12-26 15:00:00+00:00,298.2157749049686
2024-12-26 16:00:00+00:00,315.95052702431957
2024-12-26 17:00:00+00:00,302.60409012465004
2024-12-26 18:00:00+00:00,285.42429104148067
2024-12-26 19:00:00+00:00,286.77208876018767
2024-12-26 20:00:00+00:00,269.94771521158174
2024-12-27 14:00:00+00:00,275.56741561155326
2024-12-27 15:00:00+00:00,271.9397301669952
2024-12-27 16:00:00+00:00,258.3888278929527
2024-12-27 17:00:00+00:00,251.07417350040464
2024-12-27 18:00:00+00:00,266.552946085272
2024-12-27 19:00:00+00:00,237.63181807632446
2024-12-27 20:00:00+00:00,252.75186335259198
2024-12-30 14:00:00+00:00,141.71592877953742
2024-12-30 15:00:00+00:00,148.69035732423154
2024-12-30 16:00:00+00:00,170.1294941742443
2024-12-30 17:00:00+00:00,174.01234990899994
2024-12-30 18:00:00+00:00,163.35614003288254
2024-12-30 19:00:00+00:00,154.05592177294747
2024-12-30 20:00:00+00:00,157.78449623883625
2024-12-31 14:00:00+00:00,177.95610469097016
2024-12-31 15:00:00+00:00,168.48453942010633
2024-12-31 16:00:00+00:00,153.69735637953647
2024-12-31 17:00:00+00:00,136.50803401714563
2024-12-31 18:00:00+00:00,147.5034039632153
2024-12-31 19:00:00+00:00,168.6762175640009
2025-01-02 14:00:00+00:00,193.37384108980706
2025-01-02 15:00:00+00:00,188.5492455729862
2025-01-02 16:00:00+00:00,181.22064514481917
2025-01-02 17:00:00+00:00,136.3055781726864
2025-01-02 18:00:00+00:00,141.5164786200679
2025-01-02 19:00:00+00:00,165.14754037474137
2025-01-02 20:00:00+00:00,133.54367122809938
2025-01-03 14:00:00+00:00,177.63551075350256
2025-01-03 15:00:00+00:00,176.1257769412044
2025-01-03 16:00:00+00:00,165.0426010148473
2025-01-03 17:00:00+00:00,163.5203548475531
2025-01-03 18:00:00+00:00,153.73045642141696
2025-01-03 19:00:00+00:00,150.1959906700032
2025-01-03 20:00:00+00:00,135.02144328959815
2025-01-06 14:00:00+00:00,184.58901510831333
2025-01-06 15:00:00+00:00,159.75864955281756
2025-01-06 18:00:00+00:00,111.34473835108186
2025-01-06 19:00:00+00:00,104.87067856510325
2025-01-06 20:00:00+00:00,112.96870728782208
2025-01-07 14:00:00+00:00,178.66727475929574
2025-01-07 15:00:00+00:00,175.06080956106737
2025-01-07 16:00:00+00:00,143.12284024504723
2025-01-07 17:00:00+00:00,149.833681827124
2025-01-07 18:00:00+00:00,150.66943340688448
2025-01-07 19:00:00+00:00,111.05453108266063
2025-01-07 20:00:00+00:00,145.43135894430952
2025-01-08 14:00:00+00:00,226.21213923751998
2025-01-08 15:00:00+00:00,254.37593381635466
2025-01-08 16:00:00+00:00,221.5092034714884
2025-01-08 17:00:00+00:00,220.8388335601973
2025-01-08 18:00:00+00:00,218.78134840868609
2025-01-08 19:00:00+00:00,235.0149839789811
2025-01-08 20:00:00+00:00,251.602647631911
2025-01-10 14:00:00+00:00,144.34900844018983
2025-01-10 15:00:00+00:00,136.99191478162666
2025-01-10 16:00:00+00:00,117.95988738291611
2025-01-10 17:00:00+00:00,168.27034936370535
2025-01-10 19:00:00+00:00,155.40657906504416
2025-01-10 20:00:00+00:00,158.83971777780957
2025-01-13 14:00:00+00:00,231.66493304698304
2025-01-13 15:00:00+00:00,271.01296474889915
2025-01-13 16:00:00+00:00,271.1785802329782
2025-01-13 17:00:00+00:00,289.50530586738
2025-01-13 18:00:00+00:00,302.0227355259427
2025-01-13 19:00:00+00:00,297.0702307333336
2025-01-13 20:00:00+00:00,286.76070685483467
2025-01-14 14:00:00+00:00,322.1116519281086
2025-01-14 15:00:00+00:00,335.01832912400425
2025-01-14 16:00:00+00:00,319.7754133457028
2025-01-14 17:00:00+00:00,345.79924278525885
2025-01-14 18:00:00+00:00,388.4576327126766
2025-01-14 19:00:00+00:00,373.72903172870986
2025-01-14 20:00:00+00:00,387.69799860085845
2025-01-15 14:00:00+00:00,429.51851993540765
2025-01-15 15:00:00+00:00,387.27993400275255
2025-01-15 16:00:00+00:00,378.0799923662359
2025-01-15 18:00:00+00:00,400.55022435985785
2025-01-15 19:00:00+00:00,412.09042359109816
2025-01-15 20:00:00+00:00,388.24472466286613
2025-01-16 14:00:00+00:00,433.05518244179007
2025-01-16 15:00:00+00:00,428.8740688830922
2025-01-16 16:00:00+00:00,450.971207090241
2025-01-16 17:00:00+00:00,448.94184782557863
2025-01-16 19:00:00+00:00,452.9626643996671
2025-01-16 20:00:00+00:00,456.01579211184503
2025-01-17 14:00:00+00:00,517.9832705807836
2025-01-17 15:00:00+00:00,551.709017251104
2025-01-17 16:00:00+00:00,561.336699851585
2025-01-17 18:00:00+00:00,533.0718338031184
2025-01-17 19:00:00+00:00,527.191810759226
2025-01-17 20:00:00+00:00,520.7055443342819
2025-01-21 14:00:00+00:00,629.6856612520589
2025-01-21 15:00:00+00:00,629.6856612520589
2025-01-21 16:00:00+00:00,629.6856612520589
2025-01-21 17:00:00+00:00,629.6856612520589
2025-01-21 19:00:00+00:00,629.6856612520589
2025-01-21 20:00:00+00:00,629.6856612520589
2025-01-22 14:00:00+00:00,629.6856612520589
2025-01-22 16:00:00+00:00,629.6856612520589
2025-01-22 17:00:00+00:00,629.6856612520589
2025-01-22 19:00:00+00:00,629.6856612520589
2025-01-22 20:00:00+00:00,629.6856612520589
2025-01-23 14:00:00+00:00,629.6856612520589
2025-01-23 15:00:00+00:00,629.6856612520589
2025-01-23 16:00:00+00:00,629.6856612520589
2025-01-23 17:00:00+00:00,629.6856612520589
2025-01-23 18:00:00+00:00,629.6856612520589
2025-01-23 19:00:00+00:00,629.6856612520589
2025-01-23 20:00:00+00:00,629.6856612520589
2025-01-24 14:00:00+00:00,629.6856612520589
2025-01-24 15:00:00+00:00,629.6856612520589
2025-01-24 16:00:00+00:00,629.6856612520589
2025-01-24 17:00:00+00:00,629.6856612520589
2025-01-24 18:00:00+00:00,629.6856612520589
2025-01-24 19:00:00+00:00,629.6856612520589
2025-01-24 20:00:00+00:00,629.6856612520589
2025-01-27 14:00:00+00:00,629.6856612520589
2025-01-27 15:00:00+00:00,629.6856612520589
2025-01-27 16:00:00+00:00,629.6856612520589
2025-01-27 17:00:00+00:00,629.6856612520589
2025-01-27 18:00:00+00:00,629.6856612520589
2025-01-27 19:00:00+00:00,629.6856612520589
2025-01-27 20:00:00+00:00,629.6856612520589
2025-01-28 14:00:00+00:00,629.6856612520589
2025-01-28 15:00:00+00:00,629.6856612520589
2025-01-28 16:00:00+00:00,629.6856612520589
2025-01-28 17:00:00+00:00,629.6856612520589
2025-01-28 18:00:00+00:00,629.6856612520589
2025-01-28 19:00:00+00:00,629.6856612520589
2025-01-29 14:00:00+00:00,629.6856612520589
2025-01-29 15:00:00+00:00,629.6856612520589
2025-01-29 16:00:00+00:00,629.6856612520589
2025-01-29 17:00:00+00:00,629.6856612520589
2025-01-29 18:00:00+00:00,629.6856612520589
2025-01-29 19:00:00+00:00,629.6856612520589
2025-01-29 20:00:00+00:00,629.6856612520589
2025-01-30 14:00:00+00:00,629.6856612520589
2025-01-30 15:00:00+00:00,629.6856612520589
2025-01-30 16:00:00+00:00,629.6856612520589
2025-01-30 18:00:00+00:00,629.6856612520589
2025-01-30 19:00:00+00:00,629.6856612520589
2025-01-30 20:00:00+00:00,629.6856612520589
2025-01-31 14:00:00+00:00,629.6856612520589
2025-01-31 15:00:00+00:00,629.6856612520589
2025-01-31 16:00:00+00:00,629.6856612520589
2025-01-31 17:00:00+00:00,629.6856612520589
2025-01-31 18:00:00+00:00,629.6856612520589
2025-01-31 19:00:00+00:00,629.6856612520589
2025-01-31 20:00:00+00:00,629.6856612520589
2025-02-03 14:00:00+00:00,629.6856612520589
2025-02-03 15:00:00+00:00,629.6856612520589
2025-02-03 16:00:00+00:00,629.6856612520589
2025-02-03 17:00:00+00:00,629.6856612520589
2025-02-03 18:00:00+00:00,629.6856612520589
2025-02-03 19:00:00+00:00,629.6856612520589
2025-02-03 20:00:00+00:00,629.6856612520589
2025-02-04 16:00:00+00:00,629.6856612520589
2025-02-04 18:00:00+00:00,629.6856612520589
2025-02-04 20:00:00+00:00,629.6856612520589
2025-02-05 14:00:00+00:00,629.6856612520589
2025-02-05 15:00:00+00:00,629.6856612520589
2025-02-05 16:00:00+00:00,629.6856612520589
2025-02-05 17:00:00+00:00,629.6856612520589
2025-02-05 19:00:00+00:00,629.6856612520589
2025-02-05 20:00:00+00:00,629.6856612520589
2025-02-06 14:00:00+00:00,629.6856612520589
2025-02-06 15:00:00+00:00,629.6856612520589
2025-02-06 17:00:00+00:00,629.6856612520589
2025-02-06 18:00:00+00:00,629.6856612520589
2025-02-06 19:00:00+00:00,629.6856612520589
2025-02-06 20:00:00+00:00,629.6856612520589
2025-02-07 14:00:00+00:00,629.6856612520589
2025-02-07 15:00:00+00:00,629.6856612520589
2025-02-07 16:00:00+00:00,629.6856612520589
2025-02-07 17:00:00+00:00,629.6856612520589
2025-02-07 19:00:00+00:00,629.6856612520589
2025-02-07 20:00:00+00:00,629.6856612520589
2025-02-10 14:00:00+00:00,629.6856612520589
2025-02-10 15:00:00+00:00,629.6856612520589
2025-02-10 19:00:00+00:00,629.6856612520589
2025-02-10 20:00:00+00:00,629.6856612520589
2025-02-11 14:00:00+00:00,629.6856612520589
2025-02-11 16:00:00+00:00,629.6856612520589
2025-02-11 17:00:00+00:00,629.6856612520589
2025-02-11 19:00:00+00:00,629.6856612520589
2025-02-11 20:00:00+00:00,629.6856612520589
2025-02-12 14:00:00+00:00,629.6856612520589
2025-02-12 15:00:00+00:00,629.6856612520589
2025-02-12 16:00:00+00:00,629.6856612520589
2025-02-12 17:00:00+00:00,629.6856612520589
2025-02-12 18:00:00+00:00,629.6856612520589
2025-02-12 19:00:00+00:00,629.6856612520589
2025-02-12 20:00:00+00:00,629.6856612520589
2025-02-13 14:00:00+00:00,629.6856612520589
2025-02-13 15:00:00+00:00,629.6856612520589
2025-02-13 16:00:00+00:00,629.6856612520589
2025-02-13 17:00:00+00:00,629.6856612520589
2025-02-13 18:00:00+00:00,629.6856612520589
2025-02-13 19:00:00+00:00,629.6856612520589
2025-02-13 20:00:00+00:00,629.6856612520589
2025-02-14 14:00:00+00:00,629.6856612520589
2025-02-14 15:00:00+00:00,629.6856612520589
2025-02-14 16:00:00+00:00,629.6856612520589
2025-02-14 17:00:00+00:00,629.6856612520589
2025-02-14 18:00:00+00:00,629.6856612520589
2025-02-14 19:00:00+00:00,629.6856612520589
2025-02-14 20:00:00+00:00,629.6856612520589
2025-02-18 14:00:00+00:00,629.6856612520589
2025-02-18 15:00:00+00:00,629.6856612520589
2025-02-18 16:00:00+00:00,629.6856612520589
2025-02-18 17:00:00+00:00,629.6856612520589
2025-02-18 18:00:00+00:00,629.6856612520589
2025-02-18 19:00:00+00:00,629.6856612520589
2025-02-18 20:00:00+00:00,629.6856612520589
2025-02-19 14:00:00+00:00,629.6856612520589
2025-02-19 15:00:00+00:00,629.6856612520589
2025-02-19 16:00:00+00:00,629.6856612520589
2025-02-19 17:00:00+00:00,629.6856612520589
2025-02-19 18:00:00+00:00,629.6856612520589
2025-02-19 19:00:00+00:00,629.6856612520589
2025-02-19 20:00:00+00:00,629.6856612520589
2025-02-20 14:00:00+00:00,629.6856612520589
2025-02-20 15:00:00+00:00,629.6856612520589
2025-02-20 16:00:00+00:00,629.6856612520589
2025-02-20 17:00:00+00:00,629.6856612520589
2025-02-20 18:00:00+00:00,629.6856612520589
2025-02-20 19:00:00+00:00,629.6856612520589
2025-02-21 14:00:00+00:00,629.6856612520589
2025-02-21 15:00:00+00:00,629.6856612520589
2025-02-21 16:00:00+00:00,629.6856612520589
2025-02-21 17:00:00+00:00,629.6856612520589
2025-02-21 18:00:00+00:00,629.6856612520589
2025-02-21 19:00:00+00:00,629.6856612520589
2025-02-21 20:00:00+00:00,629.6856612520589
2025-02-24 14:00:00+00:00,629.6856612520589
2025-02-24 15:00:00+00:00,629.6856612520589
2025-02-24 16:00:00+00:00,629.6856612520589
2025-02-24 17:00:00+00:00,629.6856612520589
2025-02-24 18:00:00+00:00,629.6856612520589
2025-02-24 19:00:00+00:00,629.6856612520589
2025-02-24 20:00:00+00:00,629.6856612520589
2025-02-25 14:00:00+00:00,629.6856612520589
2025-02-25 15:00:00+00:00,629.6856612520589
2025-02-25 16:00:00+00:00,629.6856612520589
2025-02-25 17:00:00+00:00,629.6856612520589
2025-02-25 18:00:00+00:00,629.6856612520589
2025-02-25 19:00:00+00:00,629.6856612520589
2025-02-25 20:00:00+00:00,629.6856612520589
2025-02-26 14:00:00+00:00,629.6856612520589
2025-02-26 15:00:00+00:00,629.6856612520589
2025-02-26 16:00:00+00:00,629.6856612520589
2025-02-26 17:00:00+00:00,629.6856612520589
2025-02-26 18:00:00+00:00,629.6856612520589
2025-02-26 19:00:00+00:00,629.6856612520589
2025-02-26 20:00:00+00:00,629.6856612520589
2025-02-27 14:00:00+00:00,629.6856612520589
2025-02-27 15:00:00+00:00,629.6856612520589
2025-02-27 16:00:00+00:00,629.6856612520589
2025-02-27 17:00:00+00:00,629.6856612520589
2025-02-27 18:00:00+00:00,629.6856612520589
2025-02-27 19:00:00+00:00,629.6856612520589
2025-02-27 20:00:00+00:00,629.6856612520589
2025-02-28 14:00:00+00:00,629.6856612520589
2025-02-28 15:00:00+00:00,629.6856612520589
2025-02-28 16:00:00+00:00,629.6856612520589
2025-02-28 17:00:00+00:00,629.6856612520589
2025-02-28 18:00:00+00:00,629.6856612520589
2025-02-28 19:00:00+00:00,629.6856612520589
2025-02-28 20:00:00+00:00,629.6856612520589
2025-03-03 14:00:00+00:00,629.6856612520589
2025-03-03 15:00:00+00:00,629.6856612520589
2025-03-03 16:00:00+00:00,629.6856612520589
2025-03-03 17:00:00+00:00,629.6856612520589
2025-03-03 18:00:00+00:00,629.6856612520589
2025-03-03 19:00:00+00:00,629.6856612520589
2025-03-03 20:00:00+00:00,629.6856612520589
2025-03-04 14:00:00+00:00,629.6856612520589
2025-03-04 15:00:00+00:00,629.6856612520589
2025-03-04 16:00:00+00:00,629.6856612520589
2025-03-04 17:00:00+00:00,629.6856612520589
2025-03-04 18:00:00+00:00,629.6856612520589
2025-03-04 19:00:00+00:00,629.6856612520589
2025-03-04 20:00:00+00:00,629.6856612520589
2025-03-05 14:00:00+00:00,629.6856612520589
2025-03-05 15:00:00+00:00,629.6856612520589
2025-03-05 16:00:00+00:00,629.6856612520589
2025-03-05 17:00:00+00:00,629.6856612520589
2025-03-05 18:00:00+00:00,629.6856612520589
2025-03-05 19:00:00+00:00,629.6856612520589
2025-03-05 20:00:00+00:00,629.6856612520589
2025-03-06 14:00:00+00:00,629.6856612520589
2025-03-06 15:00:00+00:00,629.6856612520589
2025-03-06 16:00:00+00:00,629.6856612520589
2025-03-06 17:00:00+00:00,629.6856612520589
2025-03-06 18:00:00+00:00,629.6856612520589
2025-03-06 19:00:00+00:00,629.6856612520589
2025-03-06 20:00:00+00:00,629.6856612520589
2025-03-07 14:00:00+00:00,629.6856612520589
2025-03-07 15:00:00+00:00,629.6856612520589
2025-03-07 17:00:00+00:00,629.6856612520589
2025-03-07 18:00:00+00:00,629.6856612520589
2025-03-07 19:00:00+00:00,629.6856612520589
2025-03-07 20:00:00+00:00,629.6856612520589
2025-03-10 13:00:00+00:00,629.6856612520589
2025-03-10 14:00:00+00:00,629.6856612520589
2025-03-10 15:00:00+00:00,629.6856612520589
2025-03-10 16:00:00+00:00,629.6856612520589
2025-03-10 17:00:00+00:00,629.6856612520589
2025-03-10 18:00:00+00:00,629.6856612520589
2025-03-10 19:00:00+00:00,629.6856612520589
2025-03-11 13:00:00+00:00,629.6856612520589
2025-03-11 14:00:00+00:00,629.6856612520589
2025-03-11 15:00:00+00:00,629.6856612520589
2025-03-11 16:00:00+00:00,629.6856612520589
2025-03-11 17:00:00+00:00,629.6856612520589
2025-03-11 18:00:00+00:00,629.6856612520589
2025-03-11 19:00:00+00:00,629.6856612520589
2025-03-12 13:00:00+00:00,629.6856612520589
2025-03-12 14:00:00+00:00,629.6856612520589
2025-03-12 15:00:00+00:00,629.6856612520589
2025-03-12 16:00:00+00:00,629.6856612520589
2025-03-12 17:00:00+00:00,629.6856612520589
2025-03-12 18:00:00+00:00,629.6856612520589
2025-03-12 19:00:00+00:00,629.6856612520589
2025-03-13 13:00:00+00:00,629.6856612520589
2025-03-13 14:00:00+00:00,629.6856612520589
2025-03-13 15:00:00+00:00,629.6856612520589
2025-03-13 17:00:00+00:00,629.6856612520589
2025-03-13 18:00:00+00:00,629.6856612520589
2025-03-13 19:00:00+00:00,629.6856612520589
2025-03-14 13:00:00+00:00,629.6856612520589
2025-03-14 14:00:00+00:00,629.6856612520589
2025-03-14 15:00:00+00:00,629.6856612520589
2025-03-14 16:00:00+00:00,629.6856612520589
2025-03-14 17:00:00+00:00,629.6856612520589
2025-03-14 18:00:00+00:00,629.6856612520589
2025-03-14 19:00:00+00:00,629.6856612520589
2025-03-17 13:00:00+00:00,629.6856612520589
2025-03-17 14:00:00+00:00,629.6856612520589
2025-03-17 15:00:00+00:00,629.6856612520589
2025-03-17 16:00:00+00:00,629.6856612520589
2025-03-17 17:00:00+00:00,629.6856612520589
2025-03-17 18:00:00+00:00,629.6856612520589
2025-03-17 19:00:00+00:00,629.6856612520589
2025-03-18 13:00:00+00:00,629.6856612520589
2025-03-18 14:00:00+00:00,629.6856612520589
2025-03-18 15:00:00+00:00,629.6856612520589
2025-03-18 16:00:00+00:00,629.6856612520589
2025-03-18 17:00:00+00:00,629.6856612520589
2025-03-18 18:00:00+00:00,629.6856612520589
2025-03-18 19:00:00+00:00,629.6856612520589
2025-03-19 13:00:00+00:00,629.6856612520589
2025-03-19 14:00:00+00:00,629.6856612520589
2025-03-19 15:00:00+00:00,629.6856612520589
2025-03-19 16:00:00+00:00,629.6856612520589
2025-03-19 17:00:00+00:00,629.6856612520589
2025-03-19 18:00:00+00:00,629.6856612520589
2025-03-19 19:00:00+00:00,629.6856612520589
2025-03-20 13:00:00+00:00,629.6856612520589
2025-03-20 14:00:00+00:00,629.6856612520589
2025-03-20 15:00:00+00:00,629.6856612520589
2025-03-20 16:00:00+00:00,629.6856612520589
2025-03-20 17:00:00+00:00,629.6856612520589
2025-03-20 18:00:00+00:00,629.6856612520589
2025-03-20 19:00:00+00:00,629.6856612520589
2025-03-21 13:00:00+00:00,629.6856612520589
2025-03-21 14:00:00+00:00,629.6856612520589
2025-03-21 15:00:00+00:00,629.6856612520589
2025-03-21 16:00:00+00:00,629.6856612520589
2025-03-21 17:00:00+00:00,629.6856612520589
2025-03-21 18:00:00+00:00,629.6856612520589
2025-03-21 19:00:00+00:00,629.6856612520589
2025-03-24 13:00:00+00:00,629.6856612520589
2025-03-24 14:00:00+00:00,629.6856612520589
2025-03-24 15:00:00+00:00,629.6856612520589
2025-03-24 16:00:00+00:00,629.6856612520589
2025-03-24 17:00:00+00:00,629.6856612520589
2025-03-24 18:00:00+00:00,629.6856612520589
2025-03-24 19:00:00+00:00,629.6856612520589
2025-03-25 13:00:00+00:00,629.6856612520589
2025-03-25 14:00:00+00:00,629.6856612520589
2025-03-25 15:00:00+00:00,629.6856612520589
2025-03-25 16:00:00+00:00,629.6856612520589
2025-03-25 17:00:00+00:00,629.6856612520589
2025-03-25 18:00:00+00:00,629.6856612520589
2025-03-25 19:00:00+00:00,629.6856612520589
2025-03-26 13:00:00+00:00,629.6856612520589
2025-03-26 14:00:00+00:00,629.6856612520589
2025-03-26 15:00:00+00:00,629.6856612520589
2025-03-26 16:00:00+00:00,629.6856612520589
2025-03-26 17:00:00+00:00,629.6856612520589
2025-03-26 18:00:00+00:00,629.6856612520589
2025-03-26 19:00:00+00:00,629.6856612520589
2025-03-27 13:00:00+00:00,629.6856612520589
2025-03-27 14:00:00+00:00,629.6856612520589
2025-03-27 15:00:00+00:00,629.6856612520589
2025-03-27 16:00:00+00:00,629.6856612520589
2025-03-27 17:00:00+00:00,629.6856612520589
2025-03-27 18:00:00+00:00,629.6856612520589
2025-03-27 19:00:00+00:00,629.6856612520589
2025-03-28 13:00:00+00:00,629.6856612520589
2025-03-28 14:00:00+00:00,629.6856612520589
2025-03-28 15:00:00+00:00,629.6856612520589
2025-03-28 16:00:00+00:00,629.6856612520589
2025-03-28 17:00:00+00:00,629.6856612520589
2025-03-28 18:00:00+00:00,629.6856612520589
2025-03-28 19:00:00+00:00,629.6856612520589
2025-03-31 13:00:00+00:00,629.6856612520589
2025-03-31 14:00:00+00:00,629.6856612520589
2025-03-31 15:00:00+00:00,629.6856612520589
2025-03-31 16:00:00+00:00,629.6856612520589
2025-03-31 17:00:00+00:00,629.6856612520589
2025-03-31 18:00:00+00:00,629.6856612520589
2025-03-31 19:00:00+00:00,629.6856612520589
2025-04-01 13:00:00+00:00,629.6856612520589
2025-04-01 14:00:00+00:00,629.6856612520589
2025-04-01 15:00:00+00:00,629.6856612520589
2025-04-01 16:00:00+00:00,629.6856612520589
2025-04-01 17:00:00+00:00,629.6856612520589
2025-04-01 18:00:00+00:00,629.6856612520589
2025-04-01 19:00:00+00:00,629.6856612520589
2025-04-02 13:00:00+00:00,629.6856612520589
2025-04-02 14:00:00+00:00,629.6856612520589
2025-04-02 16:00:00+00:00,629.6856612520589
2025-04-02 17:00:00+00:00,629.6856612520589
2025-04-02 18:00:00+00:00,629.6856612520589
2025-04-02 19:00:00+00:00,629.6856612520589
2025-04-03 13:00:00+00:00,629.6856612520589
2025-04-03 14:00:00+00:00,629.6856612520589
2025-04-03 15:00:00+00:00,629.6856612520589
2025-04-03 16:00:00+00:00,629.6856612520589
2025-04-03 17:00:00+00:00,629.6856612520589
2025-04-03 18:00:00+00:00,629.6856612520589
2025-04-03 19:00:00+00:00,629.6856612520589
2025-04-04 13:00:00+00:00,629.6856612520589
2025-04-04 14:00:00+00:00,629.6856612520589
2025-04-04 15:00:00+00:00,629.6856612520589
2025-04-04 16:00:00+00:00,629.6856612520589
2025-04-04 17:00:00+00:00,629.6856612520589
2025-04-04 18:00:00+00:00,629.6856612520589
2025-04-04 19:00:00+00:00,629.6856612520589
2025-04-07 13:00:00+00:00,456.6376555187756
2025-04-07 14:00:00+00:00,283.89539559010734
2025-04-07 15:00:00+00:00,398.96900289883234
2025-04-07 16:00:00+00:00,450.50030773768805
2025-04-07 17:00:00+00:00,471.930393135313
2025-04-07 18:00:00+00:00,380.14541975525975
2025-04-07 19:00:00+00:00,422.9376192868659
2025-04-08 13:00:00+00:00,535.8810127071475
2025-04-08 14:00:00+00:00,487.7767518644872
2025-04-08 15:00:00+00:00,526.2401640732456
2025-04-08 16:00:00+00:00,331.6119535246394
2025-04-08 17:00:00+00:00,293.8205305518445
2025-04-08 18:00:00+00:00,288.4365904389386
2025-04-08 19:00:00+00:00,254.80890629365462
2025-04-09 13:00:00+00:00,308.875133108011
2025-04-09 14:00:00+00:00,337.2614732339476
2025-04-09 15:00:00+00:00,328.4989928454377
2025-04-09 16:00:00+00:00,689.7059084874898
2025-04-09 17:00:00+00:00,691.2451174324596
2025-04-09 18:00:00+00:00,674.3335925537795
2025-04-09 19:00:00+00:00,722.3106304826181
2025-04-10 13:00:00+00:00,650.1546843254895
2025-04-10 14:00:00+00:00,593.2777497138675
2025-04-10 15:00:00+00:00,491.7738843158472
2025-04-10 16:00:00+00:00,513.7400422193164
2025-04-10 17:00:00+00:00,664.6793841769703
2025-04-10 18:00:00+00:00,544.8610908762969
2025-04-10 19:00:00+00:00,519.6310080752987
2025-04-11 13:00:00+00:00,597.7017006247703
2025-04-11 14:00:00+00:00,573.3356621215542
2025-04-11 15:00:00+00:00,718.0586835372205
2025-04-11 16:00:00+00:00,746.9011152999235
2025-04-11 17:00:00+00:00,764.665347738921
2025-04-11 18:00:00+00:00,770.8482769726656
2025-04-11 19:00:00+00:00,682.0681215073453
2025-04-14 13:00:00+00:00,733.726761489353
2025-04-14 14:00:00+00:00,725.7014688328579
2025-04-14 15:00:00+00:00,718.8359791607922
2025-04-14 16:00:00+00:00,719.6716730095239
2025-04-14 17:00:00+00:00,775.1783238096554
2025-04-14 18:00:00+00:00,789.8476694397483
2025-04-14 19:00:00+00:00,755.9692831763898
2025-04-15 13:00:00+00:00,908.5609073112315
2025-04-15 14:00:00+00:00,919.9523809826385
2025-04-15 15:00:00+00:00,920.5771344287598
2025-04-15 16:00:00+00:00,903.4495533281012
2025-04-15 17:00:00+00:00,904.6956431758183
2025-04-15 18:00:00+00:00,915.7878106843046
2025-04-15 19:00:00+00:00,890.9398856625712
2025-04-16 13:00:00+00:00,908.8566067925922
2025-04-16 14:00:00+00:00,947.5803275610424
2025-04-16 15:00:00+00:00,930.9270538349892
2025-04-16 17:00:00+00:00,889.8745227255977
2025-04-16 18:00:00+00:00,820.9633329236453
2025-04-16 19:00:00+00:00,845.0511532049323
2025-04-17 13:00:00+00:00,891.9253378735576
2025-04-17 14:00:00+00:00,898.0008789732115
2025-04-17 15:00:00+00:00,912.996088467195
2025-04-17 16:00:00+00:00,910.4592092659402
2025-04-17 17:00:00+00:00,924.4487603781606
2025-04-17 18:00:00+00:00,913.8977725885663
2025-04-17 19:00:00+00:00,900.7989630043099
2025-04-21 13:00:00+00:00,888.249336105713
2025-04-21 14:00:00+00:00,808.7728787358585
2025-04-21 15:00:00+00:00,768.6316047863191
2025-04-21 16:00:00+00:00,741.2288848446682
2025-04-21 17:00:00+00:00,698.0457372411983
2025-04-21 18:00:00+00:00,707.692192170085
2025-04-21 19:00:00+00:00,748.146593836372
2025-04-22 13:00:00+00:00,874.5832641686641
2025-04-22 14:00:00+00:00,881.7684936272913
2025-04-22 15:00:00+00:00,898.1897562186564
2025-04-22 16:00:00+00:00,852.8491766051658
2025-04-22 17:00:00+00:00,881.8670050366205
2025-04-22 18:00:00+00:00,887.9530542704484
2025-04-22 19:00:00+00:00,919.4324434304395
2025-04-23 13:00:00+00:00,886.2835938391033
2025-04-23 14:00:00+00:00,886.2835938391033
2025-04-23 15:00:00+00:00,886.2835938391033
2025-04-23 16:00:00+00:00,886.2835938391033
2025-04-23 17:00:00+00:00,886.2835938391033
2025-04-23 18:00:00+00:00,886.2835938391033
2025-04-23 19:00:00+00:00,886.2835938391033
2025-04-24 13:00:00+00:00,886.2835938391033
2025-04-24 14:00:00+00:00,886.2835938391033
2025-04-24 16:00:00+00:00,886.2835938391033
2025-04-24 17:00:00+00:00,886.2835938391033
2025-04-24 18:00:00+00:00,886.2835938391033
2025-04-24 19:00:00+00:00,886.2835938391033
2025-04-25 13:00:00+00:00,886.2835938391033
2025-04-25 14:00:00+00:00,886.2835938391033
2025-04-25 15:00:00+00:00,886.2835938391033
2025-04-25 16:00:00+00:00,886.2835938391033
2025-04-25 17:00:00+00:00,886.2835938391033
2025-04-25 18:00:00+00:00,886.2835938391033
2025-04-25 19:00:00+00:00,886.2835938391033
2025-04-28 13:00:00+00:00,886.2835938391033
2025-04-28 14:00:00+00:00,886.2835938391033
2025-04-28 15:00:00+00:00,886.2835938391033
2025-04-28 16:00:00+00:00,886.2835938391033
2025-04-28 17:00:00+00:00,886.2835938391033
2025-04-28 18:00:00+00:00,886.2835938391033
2025-04-28 19:00:00+00:00,886.2835938391033
2025-04-29 13:00:00+00:00,886.2835938391033
2025-04-29 14:00:00+00:00,886.2835938391033
2025-04-29 15:00:00+00:00,886.2835938391033
2025-04-29 16:00:00+00:00,886.2835938391033
2025-04-29 17:00:00+00:00,886.2835938391033
2025-04-29 19:00:00+00:00,886.2835938391033
2025-04-30 13:00:00+00:00,886.2835938391033
2025-04-30 14:00:00+00:00,886.2835938391033
2025-04-30 15:00:00+00:00,886.2835938391033
2025-04-30 16:00:00+00:00,886.2835938391033
2025-04-30 17:00:00+00:00,886.2835938391033
2025-04-30 18:00:00+00:00,886.2835938391033
2025-05-01 13:00:00+00:00,886.2835938391033
2025-05-01 14:00:00+00:00,886.2835938391033
2025-05-01 15:00:00+00:00,886.2835938391033
2025-05-01 16:00:00+00:00,886.2835938391033
2025-05-01 17:00:00+00:00,886.2835938391033
2025-05-01 18:00:00+00:00,886.2835938391033
2025-05-01 19:00:00+00:00,886.2835938391033
2025-05-02 13:00:00+00:00,886.2835938391033
2025-05-02 14:00:00+00:00,886.2835938391033
2025-05-02 15:00:00+00:00,886.2835938391033
2025-05-02 16:00:00+00:00,886.2835938391033
2025-05-02 17:00:00+00:00,886.2835938391033
2025-05-02 18:00:00+00:00,886.2835938391033
2025-05-02 19:00:00+00:00,886.2835938391033
2025-05-05 13:00:00+00:00,886.2835938391033
2025-05-05 14:00:00+00:00,886.2835938391033
2025-05-05 15:00:00+00:00,886.2835938391033
2025-05-05 16:00:00+00:00,886.2835938391033
2025-05-05 17:00:00+00:00,886.2835938391033
2025-05-05 18:00:00+00:00,886.2835938391033
2025-05-05 19:00:00+00:00,886.2835938391033
2025-05-06 13:00:00+00:00,886.2835938391033
2025-05-06 14:00:00+00:00,886.2835938391033
2025-05-06 15:00:00+00:00,886.2835938391033
2025-05-06 16:00:00+00:00,886.2835938391033
2025-05-06 17:00:00+00:00,886.2835938391033
2025-05-06 18:00:00+00:00,886.2835938391033
2025-05-06 19:00:00+00:00,886.2835938391033
2025-05-07 13:00:00+00:00,886.2835938391033
2025-05-07 15:00:00+00:00,886.2835938391033
2025-05-07 17:00:00+00:00,886.2835938391033
2025-05-07 18:00:00+00:00,886.2835938391033
2025-05-07 19:00:00+00:00,886.2835938391033
2025-05-08 13:00:00+00:00,886.2835938391033
2025-05-08 14:00:00+00:00,886.2835938391033
2025-05-08 15:00:00+00:00,886.2835938391033
2025-05-08 16:00:00+00:00,886.2835938391033
2025-05-08 17:00:00+00:00,886.2835938391033
2025-05-08 18:00:00+00:00,886.2835938391033
2025-05-08 19:00:00+00:00,886.2835938391033
2025-05-09 13:00:00+00:00,886.2835938391033
2025-05-09 14:00:00+00:00,886.2835938391033
2025-05-09 15:00:00+00:00,886.2835938391033
2025-05-09 16:00:00+00:00,886.2835938391033
2025-05-09 17:00:00+00:00,886.2835938391033
2025-05-09 18:00:00+00:00,886.2835938391033
2025-05-09 19:00:00+00:00,886.2835938391033
2025-05-12 13:00:00+00:00,886.2835938391033
2025-05-12 14:00:00+00:00,886.2835938391033
2025-05-12 15:00:00+00:00,886.2835938391033
2025-05-12 16:00:00+00:00,886.2835938391033
2025-05-12 17:00:00+00:00,886.2835938391033
2025-05-12 18:00:00+00:00,886.2835938391033
2025-05-12 19:00:00+00:00,886.2835938391033
2025-05-13 13:00:00+00:00,886.2835938391033
2025-05-13 14:00:00+00:00,886.2835938391033
2025-05-13 15:00:00+00:00,886.2835938391033
2025-05-13 17:00:00+00:00,886.2835938391033
2025-05-13 18:00:00+00:00,886.2835938391033
2025-05-13 19:00:00+00:00,886.2835938391033
2025-05-14 13:00:00+00:00,886.2835938391033
2025-05-14 14:00:00+00:00,886.2835938391033
2025-05-14 15:00:00+00:00,886.2835938391033
2025-05-14 16:00:00+00:00,886.2835938391033
2025-05-14 17:00:00+00:00,886.2835938391033
2025-05-14 18:00:00+00:00,886.2835938391033
2025-05-14 19:00:00+00:00,886.2835938391033
2025-05-15 13:00:00+00:00,886.2835938391033
2025-05-15 14:00:00+00:00,886.2835938391033
2025-05-15 15:00:00+00:00,886.2835938391033
2025-05-15 16:00:00+00:00,886.2835938391033
2025-05-15 17:00:00+00:00,886.2835938391033
2025-05-15 18:00:00+00:00,886.2835938391033
2025-05-15 19:00:00+00:00,886.2835938391033
2025-05-16 13:00:00+00:00,886.2835938391033
2025-05-16 14:00:00+00:00,886.2835938391033
2025-05-16 15:00:00+00:00,886.2835938391033
2025-05-16 16:00:00+00:00,886.2835938391033
2025-05-16 17:00:00+00:00,886.2835938391033
2025-05-16 18:00:00+00:00,886.2835938391033
2025-05-16 19:00:00+00:00,886.2835938391033
2025-05-19 13:00:00+00:00,886.2835938391033
2025-05-19 14:00:00+00:00,886.2835938391033
2025-05-19 15:00:00+00:00,886.2835938391033
2025-05-19 16:00:00+00:00,886.2835938391033
2025-05-19 17:00:00+00:00,886.2835938391033
2025-05-19 18:00:00+00:00,886.2835938391033
2025-05-19 19:00:00+00:00,886.2835938391033
2025-05-20 13:00:00+00:00,886.2835938391033
2025-05-20 14:00:00+00:00,886.2835938391033
2025-05-20 15:00:00+00:00,886.2835938391033
2025-05-20 16:00:00+00:00,886.2835938391033
2025-05-20 17:00:00+00:00,886.2835938391033
2025-05-20 18:00:00+00:00,886.2835938391033
2025-05-20 19:00:00+00:00,886.2835938391033
2025-05-21 13:00:00+00:00,886.2835938391033
2025-05-21 14:00:00+00:00,886.2835938391033
2025-05-21 15:00:00+00:00,886.2835938391033
2025-05-21 16:00:00+00:00,886.2835938391033
2025-05-21 17:00:00+00:00,886.2835938391033
2025-05-21 18:00:00+00:00,886.2835938391033
2025-05-21 19:00:00+00:00,886.2835938391033
2025-05-22 13:00:00+00:00,886.2835938391033
2025-05-22 14:00:00+00:00,886.2835938391033
2025-05-22 16:00:00+00:00,886.2835938391033
2025-05-22 17:00:00+00:00,886.2835938391033
2025-05-22 18:00:00+00:00,886.2835938391033
2025-05-22 19:00:00+00:00,886.2835938391033
2025-05-23 13:00:00+00:00,886.2835938391033
2025-05-23 14:00:00+00:00,886.2835938391033
2025-05-23 15:00:00+00:00,886.2835938391033
2025-05-23 16:00:00+00:00,886.2835938391033
2025-05-23 17:00:00+00:00,886.2835938391033
2025-05-23 18:00:00+00:00,886.2835938391033
2025-05-23 19:00:00+00:00,886.2835938391033
2025-05-27 13:00:00+00:00,886.2835938391033
2025-05-27 14:00:00+00:00,886.2835938391033
2025-05-27 15:00:00+00:00,886.2835938391033
2025-05-27 16:00:00+00:00,886.2835938391033
2025-05-27 17:00:00+00:00,886.2835938391033
2025-05-27 18:00:00+00:00,886.2835938391033
2025-05-27 19:00:00+00:00,886.2835938391033
2025-05-28 13:00:00+00:00,886.2835938391033
2025-05-28 14:00:00+00:00,886.2835938391033
2025-05-28 15:00:00+00:00,886.2835938391033
2025-05-28 16:00:00+00:00,886.2835938391033
2025-05-28 17:00:00+00:00,886.2835938391033
2025-05-28 18:00:00+00:00,886.2835938391033
2025-05-28 19:00:00+00:00,886.2835938391033
2025-05-29 13:00:00+00:00,886.2835938391033
2025-05-29 14:00:00+00:00,886.2835938391033
2025-05-29 15:00:00+00:00,886.2835938391033
2025-05-29 16:00:00+00:00,886.2835938391033
2025-05-29 17:00:00+00:00,886.2835938391033
2025-05-29 18:00:00+00:00,886.2835938391033
2025-05-29 19:00:00+00:00,886.2835938391033
2025-05-30 13:00:00+00:00,886.2835938391033
2025-05-30 14:00:00+00:00,886.2835938391033
2025-05-30 15:00:00+00:00,886.2835938391033
2025-05-30 16:00:00+00:00,886.2835938391033
2025-05-30 17:00:00+00:00,886.2835938391033
2025-05-30 18:00:00+00:00,886.2835938391033
2025-05-30 19:00:00+00:00,886.2835938391033
2025-06-02 13:00:00+00:00,886.2835938391033
2025-06-02 14:00:00+00:00,886.2835938391033
2025-06-02 15:00:00+00:00,886.2835938391033
2025-06-02 16:00:00+00:00,886.2835938391033
2025-06-02 17:00:00+00:00,886.2835938391033
2025-06-02 18:00:00+00:00,886.2835938391033
2025-06-02 19:00:00+00:00,886.2835938391033
2025-06-03 13:00:00+00:00,886.2835938391033
2025-06-03 14:00:00+00:00,886.2835938391033
2025-06-03 15:00:00+00:00,886.2835938391033
2025-06-03 16:00:00+00:00,886.2835938391033
2025-06-03 17:00:00+00:00,886.2835938391033
2025-06-03 18:00:00+00:00,886.2835938391033
2025-06-03 19:00:00+00:00,886.2835938391033
2025-06-04 13:00:00+00:00,886.2835938391033
2025-06-04 14:00:00+00:00,886.2835938391033
2025-06-04 15:00:00+00:00,886.2835938391033
2025-06-04 16:00:00+00:00,886.2835938391033
2025-06-04 17:00:00+00:00,886.2835938391033
2025-06-04 18:00:00+00:00,886.2835938391033
2025-06-04 19:00:00+00:00,886.2835938391033
2025-06-05 13:00:00+00:00,886.2835938391033
2025-06-05 14:00:00+00:00,886.2835938391033
2025-06-05 15:00:00+00:00,886.2835938391033
2025-06-05 16:00:00+00:00,886.2835938391033
2025-06-05 17:00:00+00:00,886.2835938391033
2025-06-05 18:00:00+00:00,886.2835938391033
2025-06-05 19:00:00+00:00,886.2835938391033
2025-06-06 13:00:00+00:00,886.2835938391033
2025-06-06 14:00:00+00:00,886.2835938391033
2025-06-06 15:00:00+00:00,886.2835938391033
2025-06-06 16:00:00+00:00,886.2835938391033
2025-06-06 17:00:00+00:00,886.2835938391033
2025-06-06 18:00:00+00:00,886.2835938391033
2025-06-06 19:00:00+00:00,886.2835938391033
2025-06-09 13:00:00+00:00,886.2835938391033
2025-06-09 14:00:00+00:00,886.2835938391033
2025-06-09 15:00:00+00:00,886.2835938391033
2025-06-09 16:00:00+00:00,886.2835938391033
2025-06-09 17:00:00+00:00,886.2835938391033
2025-06-09 18:00:00+00:00,886.2835938391033
2025-06-09 19:00:00+00:00,886.2835938391033
2025-06-10 13:00:00+00:00,886.2835938391033
2025-06-10 14:00:00+00:00,886.2835938391033
2025-06-10 15:00:00+00:00,886.2835938391033
2025-06-10 16:00:00+00:00,886.2835938391033
2025-06-10 17:00:00+00:00,886.2835938391033
2025-06-10 18:00:00+00:00,886.2835938391033
2025-06-10 19:00:00+00:00,886.2835938391033
2025-06-11 13:00:00+00:00,886.2835938391033
2025-06-11 14:00:00+00:00,886.2835938391033
2025-06-11 15:00:00+00:00,886.2835938391033
2025-06-11 16:00:00+00:00,886.2835938391033
2025-06-11 18:00:00+00:00,886.2835938391033
2025-06-11 19:00:00+00:00,886.2835938391033
2025-06-12 13:00:00+00:00,886.2835938391033
2025-06-12 14:00:00+00:00,886.2835938391033
2025-06-12 15:00:00+00:00,886.2835938391033
2025-06-12 17:00:00+00:00,886.2835938391033
2025-06-12 18:00:00+00:00,886.2835938391033
2025-06-12 19:00:00+00:00,886.2835938391033
2025-06-13 13:00:00+00:00,886.2835938391033
2025-06-13 14:00:00+00:00,886.2835938391033
2025-06-13 15:00:00+00:00,886.2835938391033
2025-06-13 16:00:00+00:00,886.2835938391033
2025-06-13 17:00:00+00:00,886.2835938391033
2025-06-13 18:00:00+00:00,886.2835938391033
2025-06-13 19:00:00+00:00,886.2835938391033
2025-06-16 13:00:00+00:00,886.2835938391033
2025-06-16 14:00:00+00:00,886.2835938391033
2025-06-16 15:00:00+00:00,886.2835938391033
2025-06-16 16:00:00+00:00,886.2835938391033
2025-06-16 17:00:00+00:00,886.2835938391033
2025-06-16 18:00:00+00:00,886.2835938391033
2025-06-16 19:00:00+00:00,886.2835938391033
2025-06-17 13:00:00+00:00,886.2835938391033
2025-06-17 14:00:00+00:00,886.2835938391033
2025-06-17 15:00:00+00:00,886.2835938391033
2025-06-17 16:00:00+00:00,886.2835938391033
2025-06-17 17:00:00+00:00,886.2835938391033
2025-06-17 18:00:00+00:00,886.2835938391033
2025-06-17 19:00:00+00:00,886.2835938391033
2025-06-18 13:00:00+00:00,886.2835938391033
2025-06-18 15:00:00+00:00,886.2835938391033
2025-06-18 17:00:00+00:00,886.2835938391033
2025-06-18 18:00:00+00:00,886.2835938391033
2025-06-18 19:00:00+00:00,886.2835938391033
2025-06-20 13:00:00+00:00,886.2835938391033
2025-06-20 14:00:00+00:00,886.2835938391033
2025-06-20 15:00:00+00:00,886.2835938391033
2025-06-20 16:00:00+00:00,886.2835938391033
2025-06-20 18:00:00+00:00,886.2835938391033
2025-06-20 19:00:00+00:00,886.2835938391033
2025-06-23 13:00:00+00:00,886.2835938391033
2025-06-23 14:00:00+00:00,886.2835938391033
2025-06-23 16:00:00+00:00,886.2835938391033
2025-06-23 17:00:00+00:00,886.2835938391033
2025-06-23 19:00:00+00:00,886.2835938391033
2025-06-24 13:00:00+00:00,886.2835938391033
2025-06-24 14:00:00+00:00,886.2835938391033
2025-06-25 13:00:00+00:00,886.2835938391033
2025-06-25 14:00:00+00:00,886.2835938391033
2025-06-25 15:00:00+00:00,886.2835938391033
2025-06-25 16:00:00+00:00,886.2835938391033
2025-06-25 17:00:00+00:00,886.2835938391033
2025-06-25 19:00:00+00:00,886.2835938391033
2025-06-26 13:00:00+00:00,886.2835938391033
2025-06-26 14:00:00+00:00,886.2835938391033
2025-06-26 19:00:00+00:00,886.2835938391033
2025-06-27 13:00:00+00:00,886.2835938391033
2025-06-27 14:00:00+00:00,886.2835938391033
2025-06-27 15:00:00+00:00,886.2835938391033
2025-06-27 16:00:00+00:00,886.2835938391033
2025-06-27 17:00:00+00:00,886.2835938391033
2025-06-27 18:00:00+00:00,886.2835938391033
2025-06-27 19:00:00+00:00,886.2835938391033
2025-06-30 13:00:00+00:00,886.2835938391033
2025-06-30 14:00:00+00:00,886.2835938391033
2025-06-30 15:00:00+00:00,886.2835938391033
2025-06-30 16:00:00+00:00,886.2835938391033
2025-06-30 17:00:00+00:00,886.2835938391033
2025-06-30 19:00:00+00:00,886.2835938391033
2025-07-01 13:00:00+00:00,886.2835938391033
2025-07-01 14:00:00+00:00,886.2835938391033
2025-07-01 15:00:00+00:00,886.2835938391033
2025-07-01 16:00:00+00:00,886.2835938391033
2025-07-01 17:00:00+00:00,886.2835938391033
2025-07-01 18:00:00+00:00,886.2835938391033
2025-07-01 19:00:00+00:00,886.2835938391033
2025-07-02 13:00:00+00:00,886.2835938391033
2025-07-02 14:00:00+00:00,886.2835938391033
2025-07-02 15:00:00+00:00,886.2835938391033
2025-07-02 16:00:00+00:00,886.2835938391033
2025-07-02 17:00:00+00:00,886.2835938391033
2025-07-02 18:00:00+00:00,886.2835938391033
2025-07-02 19:00:00+00:00,886.2835938391033
2025-07-03 13:00:00+00:00,886.2835938391033
2025-07-03 14:00:00+00:00,886.2835938391033
2025-07-03 15:00:00+00:00,886.2835938391033
2025-07-07 13:00:00+00:00,886.2835938391033
2025-07-07 14:00:00+00:00,886.2835938391033
2025-07-07 15:00:00+00:00,886.2835938391033
2025-07-07 16:00:00+00:00,886.2835938391033
2025-07-07 17:00:00+00:00,886.2835938391033
2025-07-07 18:00:00+00:00,886.2835938391033
2025-07-07 19:00:00+00:00,886.2835938391033
2025-07-08 13:00:00+00:00,886.2835938391033
2025-07-08 14:00:00+00:00,886.2835938391033
2025-07-08 15:00:00+00:00,886.2835938391033
2025-07-08 16:00:00+00:00,886.2835938391033
2025-07-08 17:00:00+00:00,886.2835938391033
2025-07-08 18:00:00+00:00,886.2835938391033
2025-07-08 19:00:00+00:00,886.2835938391033
2025-07-09 13:00:00+00:00,886.2835938391033
2025-07-09 14:00:00+00:00,886.2835938391033
2025-07-09 15:00:00+00:00,886.2835938391033
2025-07-09 16:00:00+00:00,886.2835938391033
2025-07-09 17:00:00+00:00,886.2835938391033
2025-07-09 18:00:00+00:00,886.2835938391033
2025-07-09 19:00:00+00:00,886.2835938391033
2025-07-10 13:00:00+00:00,886.2835938391033
2025-07-10 14:00:00+00:00,886.2835938391033
2025-07-10 15:00:00+00:00,886.2835938391033
2025-07-10 16:00:00+00:00,886.2835938391033
2025-07-10 17:00:00+00:00,886.2835938391033
2025-07-10 18:00:00+00:00,886.2835938391033
2025-07-10 19:00:00+00:00,886.2835938391033
2025-07-11 13:00:00+00:00,886.2835938391033
2025-07-11 14:00:00+00:00,886.2835938391033
2025-07-11 15:00:00+00:00,886.2835938391033
2025-07-11 16:00:00+00:00,886.2835938391033
2025-07-11 17:00:00+00:00,886.2835938391033
2025-07-11 18:00:00+00:00,886.2835938391033
2025-07-11 19:00:00+00:00,886.2835938391033
2025-07-14 13:00:00+00:00,886.2835938391033
2025-07-14 14:00:00+00:00,886.2835938391033
2025-07-14 15:00:00+00:00,886.2835938391033
2025-07-14 16:00:00+00:00,886.2835938391033
2025-07-14 17:00:00+00:00,886.2835938391033
2025-07-14 19:00:00+00:00,886.2835938391033
2025-07-15 13:00:00+00:00,886.2835938391033
2025-07-15 14:00:00+00:00,886.2835938391033
2025-07-15 15:00:00+00:00,886.2835938391033
2025-07-15 16:00:00+00:00,886.2835938391033
2025-07-15 17:00:00+00:00,886.2835938391033
2025-07-15 19:00:00+00:00,886.2835938391033
2025-07-16 13:00:00+00:00,886.2835938391033
2025-07-16 14:00:00+00:00,886.2835938391033
2025-07-16 15:00:00+00:00,886.2835938391033
2025-07-16 16:00:00+00:00,886.2835938391033
2025-07-16 17:00:00+00:00,886.2835938391033
2025-07-16 19:00:00+00:00,886.2835938391033
2025-07-17 13:00:00+00:00,886.2835938391033
2025-07-17 15:00:00+00:00,886.2835938391033
2025-07-17 16:00:00+00:00,886.2835938391033
2025-07-17 17:00:00+00:00,886.2835938391033
2025-07-18 13:00:00+00:00,886.2835938391033
2025-07-18 17:00:00+00:00,886.2835938391033
2025-07-18 19:00:00+00:00,886.2835938391033
2025-07-21 13:00:00+00:00,886.2835938391033
2025-07-21 14:00:00+00:00,886.2835938391033
2025-07-21 16:00:00+00:00,886.2835938391033
2025-07-21 19:00:00+00:00,886.2835938391033
2025-07-22 13:00:00+00:00,886.2835938391033
2025-07-22 14:00:00+00:00,886.2835938391033
2025-07-22 15:00:00+00:00,886.2835938391033
2025-07-22 18:00:00+00:00,886.2835938391033
2025-07-22 19:00:00+00:00,886.2835938391033
2025-07-23 13:00:00+00:00,886.2835938391033
2025-07-23 14:00:00+00:00,886.2835938391033
2025-07-23 15:00:00+00:00,886.2835938391033
2025-07-23 16:00:00+00:00,886.2835938391033
2025-07-23 17:00:00+00:00,886.2835938391033
2025-07-23 18:00:00+00:00,886.2835938391033
2025-07-23 19:00:00+00:00,886.2835938391033
2025-07-24 13:00:00+00:00,886.2835938391033
2025-07-24 14:00:00+00:00,886.2835938391033
2025-07-24 15:00:00+00:00,886.2835938391033
2025-07-24 16:00:00+00:00,886.2835938391033
2025-07-24 19:00:00+00:00,886.2835938391033
2025-07-25 13:00:00+00:00,886.2835938391033
2025-07-25 14:00:00+00:00,886.2835938391033
2025-07-25 15:00:00+00:00,886.2835938391033
2025-07-25 16:00:00+00:00,886.2835938391033
2025-07-25 17:00:00+00:00,886.2835938391033
2025-07-25 18:00:00+00:00,886.2835938391033
2025-07-28 13:00:00+00:00,886.2835938391033
2025-07-28 14:00:00+00:00,886.2835938391033
2025-07-28 15:00:00+00:00,886.2835938391033
2025-07-28 16:00:00+00:00,886.2835938391033
2025-07-28 17:00:00+00:00,886.2835938391033
2025-07-28 18:00:00+00:00,886.2835938391033
2025-07-28 19:00:00+00:00,886.2835938391033
2025-07-29 13:00:00+00:00,886.2835938391033
2025-07-29 14:00:00+00:00,886.2835938391033
2025-07-29 15:00:00+00:00,886.2835938391033
2025-07-29 16:00:00+00:00,886.2835938391033
2025-07-29 17:00:00+00:00,886.2835938391033
2025-07-29 18:00:00+00:00,886.2835938391033
2025-07-29 19:00:00+00:00,886.2835938391033
2025-07-30 13:00:00+00:00,886.2835938391033
2025-07-30 14:00:00+00:00,886.2835938391033
2025-07-30 15:00:00+00:00,886.2835938391033
2025-07-30 16:00:00+00:00,886.2835938391033
2025-07-30 17:00:00+00:00,886.2835938391033
2025-07-30 18:00:00+00:00,886.2835938391033
2025-07-30 19:00:00+00:00,886.2835938391033
2025-07-31 13:00:00+00:00,886.2835938391033
2025-07-31 16:00:00+00:00,886.2835938391033
2025-07-31 17:00:00+00:00,886.2835938391033
2025-07-31 18:00:00+00:00,886.2835938391033
2025-07-31 19:00:00+00:00,886.2835938391033
2025-08-01 13:00:00+00:00,886.2835938391033
2025-08-01 14:00:00+00:00,886.2835938391033
2025-08-01 15:00:00+00:00,886.2835938391033
2025-08-01 16:00:00+00:00,886.2835938391033
2025-08-01 17:00:00+00:00,886.2835938391033
2025-08-04 13:00:00+00:00,886.2835938391033
2025-08-04 14:00:00+00:00,886.2835938391033
2025-08-04 15:00:00+00:00,886.2835938391033
2025-08-04 17:00:00+00:00,886.2835938391033
2025-08-04 18:00:00+00:00,886.2835938391033
2025-08-04 19:00:00+00:00,886.2835938391033
2025-08-05 13:00:00+00:00,886.2835938391033
2025-08-05 14:00:00+00:00,886.2835938391033
2025-08-05 16:00:00+00:00,886.2835938391033
2025-08-05 17:00:00+00:00,886.2835938391033
2025-08-05 19:00:00+00:00,886.2835938391033
2025-08-06 13:00:00+00:00,886.2835938391033
2025-08-06 15:00:00+00:00,886.2835938391033
2025-08-06 19:00:00+00:00,886.2835938391033
2025-08-07 13:00:00+00:00,886.2835938391033
2025-08-07 14:00:00+00:00,886.2835938391033
2025-08-07 15:00:00+00:00,886.2835938391033
2025-08-07 16:00:00+00:00,886.2835938391033
2025-08-07 17:00:00+00:00,886.2835938391033
2025-08-07 18:00:00+00:00,886.2835938391033
2025-08-07 19:00:00+00:00,886.2835938391033
2025-08-08 13:00:00+00:00,886.2835938391033
2025-08-08 14:00:00+00:00,886.2835938391033
2025-08-08 16:00:00+00:00,886.2835938391033
2025-08-08 17:00:00+00:00,886.2835938391033
2025-08-08 18:00:00+00:00,886.2835938391033
2025-08-08 19:00:00+00:00,886.2835938391033
2025-08-11 13:00:00+00:00,886.2835938391033
2025-08-11 14:00:00+00:00,886.2835938391033
2025-08-11 15:00:00+00:00,886.2835938391033
2025-08-11 18:00:00+00:00,886.2835938391033
2025-08-11 19:00:00+00:00,886.2835938391033
2025-08-12 13:00:00+00:00,886.2835938391033
2025-08-12 14:00:00+00:00,886.2835938391033
2025-08-12 15:00:00+00:00,886.2835938391033
2025-08-12 16:00:00+00:00,886.2835938391033
2025-08-12 17:00:00+00:00,886.2835938391033
2025-08-12 18:00:00+00:00,886.2835938391033
2025-08-13 13:00:00+00:00,886.2835938391033
2025-08-13 14:00:00+00:00,886.2835938391033
2025-08-13 15:00:00+00:00,886.2835938391033
2025-08-13 16:00:00+00:00,886.2835938391033
2025-08-13 18:00:00+00:00,886.2835938391033
2025-08-13 19:00:00+00:00,886.2835938391033
2025-08-14 13:00:00+00:00,886.2835938391033
2025-08-14 14:00:00+00:00,886.2835938391033
2025-08-14 15:00:00+00:00,886.2835938391033
2025-08-14 16:00:00+00:00,886.2835938391033
2025-08-14 18:00:00+00:00,886.2835938391033
2025-08-15 13:00:00+00:00,886.2835938391033
2025-08-15 14:00:00+00:00,886.2835938391033
2025-08-15 16:00:00+00:00,886.2835938391033
2025-08-15 17:00:00+00:00,886.2835938391033
2025-08-15 18:00:00+00:00,886.2835938391033
2025-08-18 13:00:00+00:00,886.2835938391033
2025-08-18 14:00:00+00:00,886.2835938391033
2025-08-18 15:00:00+00:00,886.2835938391033
2025-08-18 16:00:00+00:00,886.2835938391033
2025-08-18 18:00:00+00:00,886.2835938391033
2025-08-18 19:00:00+00:00,886.2835938391033
2025-08-19 13:00:00+00:00,886.2835938391033
2025-08-19 14:00:00+00:00,886.2835938391033
2025-08-19 15:00:00+00:00,886.2835938391033
2025-08-19 17:00:00+00:00,886.2835938391033
2025-08-19 18:00:00+00:00,886.2835938391033
2025-08-19 19:00:00+00:00,886.2835938391033
2025-08-20 13:00:00+00:00,886.2835938391033
2025-08-20 15:00:00+00:00,886.2835938391033
2025-08-20 16:00:00+00:00,886.2835938391033
2025-08-20 17:00:00+00:00,886.2835938391033
2025-08-21 13:00:00+00:00,886.2835938391033
2025-08-21 14:00:00+00:00,886.2835938391033
2025-08-21 18:00:00+00:00,886.2835938391033
2025-08-21 19:00:00+00:00,886.2835938391033
2025-08-22 13:00:00+00:00,886.2835938391033
2025-08-22 14:00:00+00:00,886.2835938391033
2025-08-22 15:00:00+00:00,886.2835938391033
2025-08-22 16:00:00+00:00,886.2835938391033
2025-08-22 18:00:00+00:00,886.2835938391033
2025-08-22 19:00:00+00:00,886.2835938391033
2025-08-25 13:00:00+00:00,886.2835938391033
2025-08-25 14:00:00+00:00,886.2835938391033
2025-08-25 15:00:00+00:00,886.2835938391033
2025-08-25 17:00:00+00:00,886.2835938391033
2025-08-26 13:00:00+00:00,886.2835938391033
2025-08-26 14:00:00+00:00,886.2835938391033
2025-08-26 18:00:00+00:00,886.2835938391033
2025-08-26 19:00:00+00:00,886.2835938391033
2025-08-27 13:00:00+00:00,886.2835938391033
2025-08-27 14:00:00+00:00,886.2835938391033
2025-08-27 15:00:00+00:00,886.2835938391033
2025-08-27 16:00:00+00:00,886.2835938391033
2025-08-27 17:00:00+00:00,886.2835938391033
2025-08-27 18:00:00+00:00,886.2835938391033
2025-08-27 19:00:00+00:00,886.2835938391033
2025-08-28 14:00:00+00:00,886.2835938391033
2025-08-28 18:00:00+00:00,886.2835938391033
2025-08-28 19:00:00+00:00,886.2835938391033
2025-08-29 15:00:00+00:00,886.2835938391033
2025-08-29 16:00:00+00:00,886.2835938391033
2025-08-29 19:00:00+00:00,886.2835938391033
2025-09-02 13:00:00+00:00,886.2835938391033
2025-09-02 14:00:00+00:00,886.2835938391033
2025-09-02 15:00:00+00:00,886.2835938391033
2025-09-02 18:00:00+00:00,886.2835938391033
2025-09-02 19:00:00+00:00,886.2835938391033
2025-09-03 13:00:00+00:00,886.2835938391033
2025-09-03 15:00:00+00:00,886.2835938391033
2025-09-03 16:00:00+00:00,886.2835938391033
2025-09-03 17:00:00+00:00,886.2835938391033
2025-09-04 13:00:00+00:00,886.2835938391033
2025-09-04 14:00:00+00:00,886.2835938391033
2025-09-04 18:00:00+00:00,886.2835938391033
2025-09-05 13:00:00+00:00,886.2835938391033
2025-09-05 14:00:00+00:00,886.2835938391033
2025-09-05 15:00:00+00:00,886.2835938391033
2025-09-05 16:00:00+00:00,886.2835938391033
2025-09-05 17:00:00+00:00,886.2835938391033
2025-09-05 18:00:00+00:00,886.2835938391033
2025-09-08 13:00:00+00:00,886.2835938391033
2025-09-08 14:00:00+00:00,886.2835938391033
2025-09-08 15:00:00+00:00,886.2835938391033
2025-09-08 18:00:00+00:00,886.2835938391033
2025-09-08 19:00:00+00:00,886.2835938391033
2025-09-09 13:00:00+00:00,886.2835938391033
2025-09-09 14:00:00+00:00,886.2835938391033
2025-09-09 15:00:00+00:00,886.2835938391033
2025-09-09 17:00:00+00:00,886.2835938391033
2025-09-09 18:00:00+00:00,886.2835938391033
2025-09-09 19:00:00+00:00,886.2835938391033
2025-09-10 13:00:00+00:00,886.2835938391033
2025-09-10 14:00:00+00:00,886.2835938391033
2025-09-10 15:00:00+00:00,886.2835938391033
2025-09-10 17:00:00+00:00,886.2835938391033
2025-09-11 13:00:00+00:00,886.2835938391033
2025-09-11 14:00:00+00:00,886.2835938391033
2025-09-11 18:00:00+00:00,886.2835938391033
2025-09-11 19:00:00+00:00,886.2835938391033
2025-09-12 13:00:00+00:00,886.2835938391033
2025-09-12 14:00:00+00:00,886.2835938391033
2025-09-12 15:00:00+00:00,886.2835938391033
2025-09-12 16:00:00+00:00,886.2835938391033
2025-09-12 17:00:00+00:00,886.2835938391033
2025-09-12 18:00:00+00:00,886.2835938391033
2025-09-12 19:00:00+00:00,886.2835938391033
2025-09-15 13:00:00+00:00,886.2835938391033
2025-09-15 14:00:00+00:00,886.2835938391033
2025-09-15 17:00:00+00:00,886.2835938391033
2025-09-15 18:00:00+00:00,886.2835938391033
2025-09-15 19:00:00+00:00,886.2835938391033
2025-09-16 13:00:00+00:00,886.2835938391033
2025-09-16 18:00:00+00:00,886.2835938391033
2025-09-17 13:00:00+00:00,886.2835938391033
2025-09-17 16:00:00+00:00,886.2835938391033
2025-09-17 17:00:00+00:00,886.2835938391033
2025-09-17 18:00:00+00:00,886.2835938391033
2025-09-17 19:00:00+00:00,886.2835938391033
2025-09-18 13:00:00+00:00,886.2835938391033
2025-09-18 14:00:00+00:00,886.2835938391033
2025-09-18 16:00:00+00:00,886.2835938391033
2025-09-18 18:00:00+00:00,886.2835938391033
2025-09-19 13:00:00+00:00,886.2835938391033
2025-09-19 15:00:00+00:00,886.2835938391033
2025-09-19 17:00:00+00:00,886.2835938391033
2025-09-19 19:00:00+00:00,886.2835938391033
2025-09-22 13:00:00+00:00,886.2835938391033
2025-09-22 14:00:00+00:00,886.2835938391033
2025-09-22 15:00:00+00:00,886.2835938391033
2025-09-22 18:00:00+00:00,886.2835938391033
2025-09-22 19:00:00+00:00,886.2835938391033
2025-09-23 13:00:00+00:00,886.2835938391033
2025-09-23 14:00:00+00:00,886.2835938391033
2025-09-23 15:00:00+00:00,886.2835938391033
2025-09-23 19:00:00+00:00,886.2835938391033
2025-09-24 15:00:00+00:00,886.2835938391033
2025-09-24 17:00:00+00:00,886.2835938391033
2025-09-24 18:00:00+00:00,886.2835938391033
2025-09-24 19:00:00+00:00,886.2835938391033
2025-09-25 13:00:00+00:00,886.2835938391033
2025-09-25 15:00:00+00:00,886.2835938391033
2025-09-25 17:00:00+00:00,886.2835938391033
2025-09-25 18:00:00+00:00,886.2835938391033
2025-09-26 13:00:00+00:00,886.2835938391033
2025-09-26 14:00:00+00:00,886.2835938391033
2025-09-26 17:00:00+00:00,886.2835938391033
2025-09-26 18:00:00+00:00,886.2835938391033
2025-09-26 19:00:00+00:00,886.2835938391033
2025-09-29 13:00:00+00:00,886.2835938391033
2025-09-29 14:00:00+00:00,886.2835938391033
2025-09-29 16:00:00+00:00,886.2835938391033
2025-09-29 17:00:00+00:00,886.2835938391033
2025-09-29 18:00:00+00:00,886.2835938391033
2025-09-29 19:00:00+00:00,886.2835938391033
2025-09-30 13:00:00+00:00,886.2835938391033
2025-09-30 14:00:00+00:00,886.2835938391033
2025-09-30 15:00:00+00:00,886.2835938391033
2025-09-30 16:00:00+00:00,886.2835938391033
2025-09-30 18:00:00+00:00,886.2835938391033
2025-09-30 19:00:00+00:00,886.2835938391033
2025-10-01 13:00:00+00:00,886.2835938391033
2025-10-01 14:00:00+00:00,886.2835938391033
2025-10-01 16:00:00+00:00,886.2835938391033
2025-10-01 19:00:00+00:00,886.2835938391033
2025-10-02 13:00:00+00:00,886.2835938391033
2025-10-02 14:00:00+00:00,886.2835938391033
2025-10-02 15:00:00+00:00,886.2835938391033
2025-10-02 16:00:00+00:00,886.2835938391033
2025-10-02 17:00:00+00:00,886.2835938391033
2025-10-02 18:00:00+00:00,886.2835938391033
2025-10-02 19:00:00+00:00,886.2835938391033
2025-10-03 13:00:00+00:00,886.2835938391033
2025-10-03 14:00:00+00:00,886.2835938391033
2025-10-03 15:00:00+00:00,886.2835938391033
2025-10-03 16:00:00+00:00,886.2835938391033
2025-10-03 17:00:00+00:00,886.2835938391033
2025-10-03 19:00:00+00:00,886.2835938391033
2025-10-06 13:00:00+00:00,886.2835938391033
2025-10-06 14:00:00+00:00,886.2835938391033
2025-10-06 15:00:00+00:00,886.2835938391033
2025-10-06 16:00:00+00:00,886.2835938391033
2025-10-06 17:00:00+00:00,886.2835938391033
2025-10-06 18:00:00+00:00,886.2835938391033
2025-10-06 19:00:00+00:00,886.2835938391033
2025-10-07 13:00:00+00:00,886.2835938391033
2025-10-07 14:00:00+00:00,886.2835938391033
2025-10-07 15:00:00+00:00,886.2835938391033
2025-10-07 16:00:00+00:00,886.2835938391033
2025-10-07 17:00:00+00:00,886.2835938391033
2025-10-07 18:00:00+00:00,886.2835938391033
2025-10-07 19:00:00+00:00,886.2835938391033
2025-10-08 13:00:00+00:00,886.2835938391033
2025-10-08 14:00:00+00:00,886.2835938391033
2025-10-08 15:00:00+00:00,886.2835938391033
2025-10-08 18:00:00+00:00,886.2835938391033
2025-10-08 19:00:00+00:00,886.2835938391033
2025-10-09 13:00:00+00:00,886.2835938391033
2025-10-09 14:00:00+00:00,886.2835938391033
2025-10-09 15:00:00+00:00,886.2835938391033
2025-10-09 18:00:00+00:00,886.2835938391033
2025-10-10 13:00:00+00:00,886.2835938391033
2025-10-10 14:00:00+00:00,886.2835938391033
2025-10-10 15:00:00+00:00,886.2835938391033
2025-10-10 16:00:00+00:00,886.2835938391033
2025-10-10 18:00:00+00:00,886.2835938391033
2025-10-13 13:00:00+00:00,886.2835938391033
2025-10-13 14:00:00+00:00,886.2835938391033
2025-10-13 15:00:00+00:00,886.2835938391033
2025-10-13 16:00:00+00:00,886.2835938391033
2025-10-13 18:00:00+00:00,886.2835938391033
2025-10-13 19:00:00+00:00,886.2835938391033
2025-10-14 13:00:00+00:00,886.2835938391033
2025-10-14 14:00:00+00:00,886.2835938391033
2025-10-14 16:00:00+00:00,886.2835938391033
2025-10-14 17:00:00+00:00,886.2835938391033
2025-10-14 18:00:00+00:00,886.2835938391033
2025-10-14 19:00:00+00:00,886.2835938391033
2025-10-15 13:00:00+00:00,886.2835938391033
2025-10-15 14:00:00+00:00,886.2835938391033
2025-10-15 15:00:00+00:00,886.2835938391033
2025-10-15 18:00:00+00:00,886.2835938391033
2025-10-15 19:00:00+00:00,886.2835938391033
2025-10-16 13:00:00+00:00,886.2835938391033
2025-10-16 14:00:00+00:00,886.2835938391033
2025-10-16 15:00:00+00:00,886.2835938391033
2025-10-16 16:00:00+00:00,886.2835938391033
2025-10-16 17:00:00+00:00,886.2835938391033
2025-10-16 18:00:00+00:00,886.2835938391033
2025-10-16 19:00:00+00:00,886.2835938391033
2025-10-17 13:00:00+00:00,886.2835938391033
2025-10-17 14:00:00+00:00,886.2835938391033
2025-10-17 15:00:00+00:00,886.2835938391033
2025-10-17 17:00:00+00:00,886.2835938391033
2025-10-17 18:00:00+00:00,886.2835938391033
2025-10-20 13:00:00+00:00,886.2835938391033
2025-10-20 14:00:00+00:00,886.2835938391033
2025-10-20 17:00:00+00:00,886.2835938391033
2025-10-20 18:00:00+00:00,886.2835938391033
2025-10-21 13:00:00+00:00,886.2835938391033
2025-10-21 14:00:00+00:00,886.2835938391033
2025-10-21 16:00:00+00:00,886.2835938391033
2025-10-21 17:00:00+00:00,886.2835938391033
2025-10-21 18:00:00+00:00,886.2835938391033
2025-10-21 19:00:00+00:00,886.2835938391033
2025-10-22 13:00:00+00:00,886.2835938391033
2025-10-22 14:00:00+00:00,886.2835938391033
2025-10-22 16:00:00+00:00,886.2835938391033
2025-10-22 17:00:00+00:00,886.2835938391033
2025-10-22 18:00:00+00:00,886.2835938391033
2025-10-22 19:00:00+00:00,886.2835938391033
