Date,0
2024-01-02 14:00:00+00:00,0.0
2024-01-02 15:00:00+00:00,0.0
2024-01-02 16:00:00+00:00,0.0
2024-01-02 17:00:00+00:00,0.0
2024-01-02 18:00:00+00:00,0.0
2024-01-02 19:00:00+00:00,0.0
2024-01-02 20:00:00+00:00,0.0
2024-01-03 14:00:00+00:00,0.0
2024-01-03 15:00:00+00:00,0.0
2024-01-03 16:00:00+00:00,0.0
2024-01-03 17:00:00+00:00,0.0
2024-01-03 18:00:00+00:00,0.0
2024-01-03 19:00:00+00:00,0.0
2024-01-03 20:00:00+00:00,0.0
2024-01-04 14:00:00+00:00,0.0
2024-01-04 15:00:00+00:00,0.0
2024-01-04 16:00:00+00:00,0.0
2024-01-04 17:00:00+00:00,0.0
2024-01-04 18:00:00+00:00,0.0
2024-01-04 19:00:00+00:00,0.0
2024-01-04 20:00:00+00:00,0.0
2024-01-05 14:00:00+00:00,0.0
2024-01-05 15:00:00+00:00,0.0
2024-01-05 16:00:00+00:00,0.0
2024-01-05 17:00:00+00:00,0.0
2024-01-05 18:00:00+00:00,0.0
2024-01-05 19:00:00+00:00,0.0
2024-01-05 20:00:00+00:00,0.0
2024-01-08 14:00:00+00:00,0.0
2024-01-08 15:00:00+00:00,0.0
2024-01-08 16:00:00+00:00,0.0
2024-01-08 17:00:00+00:00,0.0
2024-01-08 18:00:00+00:00,0.0
2024-01-08 19:00:00+00:00,0.0
2024-01-08 20:00:00+00:00,0.0
2024-01-09 14:00:00+00:00,0.0
2024-01-09 15:00:00+00:00,0.0
2024-01-09 16:00:00+00:00,0.0
2024-01-09 17:00:00+00:00,0.0
2024-01-09 18:00:00+00:00,0.0
2024-01-09 19:00:00+00:00,0.0
2024-01-09 20:00:00+00:00,0.0
2024-01-10 14:00:00+00:00,0.0
2024-01-10 15:00:00+00:00,0.0
2024-01-10 16:00:00+00:00,0.0
2024-01-10 17:00:00+00:00,0.0
2024-01-10 18:00:00+00:00,0.0
2024-01-10 19:00:00+00:00,0.0
2024-01-10 20:00:00+00:00,0.0
2024-01-11 14:00:00+00:00,0.0
2024-01-11 15:00:00+00:00,0.0
2024-01-11 16:00:00+00:00,0.0
2024-01-11 17:00:00+00:00,0.0
2024-01-11 18:00:00+00:00,0.0
2024-01-11 19:00:00+00:00,0.0
2024-01-11 20:00:00+00:00,0.0
2024-01-12 14:00:00+00:00,0.0
2024-01-12 15:00:00+00:00,0.0
2024-01-12 16:00:00+00:00,0.0
2024-01-12 17:00:00+00:00,0.0
2024-01-12 18:00:00+00:00,0.0
2024-01-12 19:00:00+00:00,0.0
2024-01-12 20:00:00+00:00,0.0
2024-01-16 14:00:00+00:00,0.0
2024-01-16 15:00:00+00:00,0.0
2024-01-16 16:00:00+00:00,0.0
2024-01-16 17:00:00+00:00,0.0
2024-01-16 18:00:00+00:00,0.0
2024-01-16 19:00:00+00:00,0.0
2024-01-16 20:00:00+00:00,0.0
2024-01-17 14:00:00+00:00,0.0
2024-01-17 15:00:00+00:00,0.0
2024-01-17 16:00:00+00:00,0.0
2024-01-17 17:00:00+00:00,0.0
2024-01-17 18:00:00+00:00,0.0
2024-01-17 19:00:00+00:00,0.0
2024-01-17 20:00:00+00:00,0.0
2024-01-18 14:00:00+00:00,0.0
2024-01-18 15:00:00+00:00,0.0
2024-01-18 16:00:00+00:00,0.0
2024-01-18 17:00:00+00:00,0.0
2024-01-18 18:00:00+00:00,0.0
2024-01-18 19:00:00+00:00,0.0
2024-01-18 20:00:00+00:00,0.0
2024-01-19 14:00:00+00:00,0.0
2024-01-19 15:00:00+00:00,0.0
2024-01-19 16:00:00+00:00,0.0
2024-01-19 17:00:00+00:00,0.0
2024-01-19 18:00:00+00:00,0.0
2024-01-19 19:00:00+00:00,0.0
2024-01-19 20:00:00+00:00,0.0
2024-01-22 14:00:00+00:00,0.0
2024-01-22 15:00:00+00:00,0.0
2024-01-22 16:00:00+00:00,0.0
2024-01-22 17:00:00+00:00,0.0
2024-01-22 18:00:00+00:00,0.0
2024-01-22 19:00:00+00:00,0.0
2024-01-22 20:00:00+00:00,0.0
2024-01-23 14:00:00+00:00,0.0
2024-01-23 15:00:00+00:00,0.0
2024-01-23 16:00:00+00:00,0.0
2024-01-23 17:00:00+00:00,0.0
2024-01-23 18:00:00+00:00,0.0
2024-01-23 19:00:00+00:00,0.0
2024-01-23 20:00:00+00:00,0.0
2024-01-24 14:00:00+00:00,0.0
2024-01-24 15:00:00+00:00,0.0
2024-01-24 16:00:00+00:00,0.0
2024-01-24 17:00:00+00:00,0.0
2024-01-24 18:00:00+00:00,0.0
2024-01-24 19:00:00+00:00,0.0
2024-01-24 20:00:00+00:00,0.0
2024-01-25 14:00:00+00:00,0.0
2024-01-25 15:00:00+00:00,0.0
2024-01-25 16:00:00+00:00,0.0
2024-01-25 17:00:00+00:00,0.0
2024-01-25 18:00:00+00:00,0.0
2024-01-25 19:00:00+00:00,0.0
2024-01-25 20:00:00+00:00,0.0
2024-01-26 14:00:00+00:00,0.0
2024-01-26 15:00:00+00:00,0.0
2024-01-26 16:00:00+00:00,0.0
2024-01-26 17:00:00+00:00,0.0
2024-01-26 18:00:00+00:00,0.0
2024-01-26 19:00:00+00:00,0.0
2024-01-26 20:00:00+00:00,0.0
2024-01-29 14:00:00+00:00,0.0
2024-01-29 15:00:00+00:00,0.0
2024-01-29 16:00:00+00:00,0.0
2024-01-29 17:00:00+00:00,0.0
2024-01-29 18:00:00+00:00,0.0
2024-01-29 19:00:00+00:00,0.0
2024-01-29 20:00:00+00:00,0.0
2024-01-30 14:00:00+00:00,0.0
2024-01-30 15:00:00+00:00,0.0
2024-01-30 16:00:00+00:00,0.0
2024-01-30 17:00:00+00:00,0.0
2024-01-30 18:00:00+00:00,0.0
2024-01-30 19:00:00+00:00,0.0
2024-01-30 20:00:00+00:00,0.0
2024-01-31 14:00:00+00:00,0.0
2024-01-31 15:00:00+00:00,0.0
2024-01-31 16:00:00+00:00,0.0
2024-01-31 17:00:00+00:00,0.0
2024-01-31 18:00:00+00:00,0.0
2024-01-31 19:00:00+00:00,0.0
2024-01-31 20:00:00+00:00,0.0
2024-02-01 14:00:00+00:00,0.0
2024-02-01 15:00:00+00:00,0.0
2024-02-01 16:00:00+00:00,0.0
2024-02-01 17:00:00+00:00,0.0
2024-02-01 18:00:00+00:00,0.0
2024-02-01 19:00:00+00:00,0.0
2024-02-01 20:00:00+00:00,0.0
2024-02-02 14:00:00+00:00,0.0
2024-02-02 15:00:00+00:00,0.0
2024-02-02 16:00:00+00:00,0.0
2024-02-02 17:00:00+00:00,0.0
2024-02-02 18:00:00+00:00,0.0
2024-02-02 19:00:00+00:00,0.0
2024-02-02 20:00:00+00:00,0.0
2024-02-05 14:00:00+00:00,0.0
2024-02-05 15:00:00+00:00,0.0
2024-02-05 16:00:00+00:00,0.0
2024-02-05 17:00:00+00:00,0.0
2024-02-05 18:00:00+00:00,0.0
2024-02-05 19:00:00+00:00,0.0
2024-02-05 20:00:00+00:00,0.0
2024-02-06 14:00:00+00:00,0.0
2024-02-06 15:00:00+00:00,0.0
2024-02-06 16:00:00+00:00,0.0
2024-02-06 17:00:00+00:00,0.0
2024-02-06 18:00:00+00:00,0.0
2024-02-06 19:00:00+00:00,0.0
2024-02-06 20:00:00+00:00,0.0
2024-02-07 14:00:00+00:00,0.0
2024-02-07 15:00:00+00:00,0.0
2024-02-07 16:00:00+00:00,0.0
2024-02-07 17:00:00+00:00,0.0
2024-02-07 18:00:00+00:00,0.0
2024-02-07 19:00:00+00:00,0.0
2024-02-07 20:00:00+00:00,0.0
2024-02-08 14:00:00+00:00,0.0
2024-02-08 15:00:00+00:00,0.0
2024-02-08 16:00:00+00:00,0.0
2024-02-08 17:00:00+00:00,0.0
2024-02-08 18:00:00+00:00,0.0
2024-02-08 19:00:00+00:00,0.0
2024-02-08 20:00:00+00:00,0.0
2024-02-09 14:00:00+00:00,0.0
2024-02-09 15:00:00+00:00,0.0
2024-02-09 16:00:00+00:00,0.0
2024-02-09 17:00:00+00:00,0.0
2024-02-09 18:00:00+00:00,0.0
2024-02-09 19:00:00+00:00,0.0
2024-02-09 20:00:00+00:00,0.0
2024-02-12 14:00:00+00:00,0.0
2024-02-12 15:00:00+00:00,0.0
2024-02-12 16:00:00+00:00,0.0
2024-02-12 17:00:00+00:00,0.0
2024-02-12 18:00:00+00:00,0.0
2024-02-12 19:00:00+00:00,0.0
2024-02-12 20:00:00+00:00,0.0
2024-02-13 14:00:00+00:00,0.0
2024-02-13 15:00:00+00:00,0.0
2024-02-13 16:00:00+00:00,0.0
2024-02-13 17:00:00+00:00,0.0
2024-02-13 18:00:00+00:00,0.0
2024-02-13 19:00:00+00:00,0.0
2024-02-13 20:00:00+00:00,0.0
2024-02-14 14:00:00+00:00,0.0
2024-02-14 15:00:00+00:00,0.0
2024-02-14 16:00:00+00:00,0.0
2024-02-14 17:00:00+00:00,0.0
2024-02-14 18:00:00+00:00,0.0
2024-02-14 19:00:00+00:00,0.0
2024-02-14 20:00:00+00:00,0.0
2024-02-15 14:00:00+00:00,0.0
2024-02-15 15:00:00+00:00,0.0
2024-02-15 16:00:00+00:00,0.0
2024-02-15 17:00:00+00:00,0.0
2024-02-15 18:00:00+00:00,0.0
2024-02-15 19:00:00+00:00,0.0
2024-02-15 20:00:00+00:00,0.0
2024-02-16 14:00:00+00:00,0.0
2024-02-16 15:00:00+00:00,0.0
2024-02-16 16:00:00+00:00,0.0
2024-02-16 17:00:00+00:00,0.0
2024-02-16 18:00:00+00:00,0.0
2024-02-16 19:00:00+00:00,0.0
2024-02-16 20:00:00+00:00,0.0
2024-02-20 14:00:00+00:00,0.0
2024-02-20 15:00:00+00:00,0.0
2024-02-20 16:00:00+00:00,0.0
2024-02-20 17:00:00+00:00,0.0
2024-02-20 18:00:00+00:00,0.0
2024-02-20 19:00:00+00:00,0.0
2024-02-20 20:00:00+00:00,0.0
2024-02-21 14:00:00+00:00,0.0
2024-02-21 15:00:00+00:00,0.0
2024-02-21 16:00:00+00:00,0.0
2024-02-21 17:00:00+00:00,0.0
2024-02-21 18:00:00+00:00,0.0
2024-02-21 19:00:00+00:00,0.0
2024-02-21 20:00:00+00:00,0.0
2024-02-22 14:00:00+00:00,0.0
2024-02-22 15:00:00+00:00,0.0
2024-02-22 16:00:00+00:00,0.0
2024-02-22 17:00:00+00:00,0.0
2024-02-22 18:00:00+00:00,0.0
2024-02-22 19:00:00+00:00,0.0
2024-02-22 20:00:00+00:00,0.0
2024-02-23 14:00:00+00:00,0.0
2024-02-23 15:00:00+00:00,0.0
2024-02-23 16:00:00+00:00,0.0
2024-02-23 17:00:00+00:00,0.0
2024-02-23 18:00:00+00:00,0.0
2024-02-23 19:00:00+00:00,0.0
2024-02-23 20:00:00+00:00,0.0
2024-02-26 14:00:00+00:00,0.0
2024-02-26 15:00:00+00:00,0.0
2024-02-26 16:00:00+00:00,0.0
2024-02-26 17:00:00+00:00,0.0
2024-02-26 18:00:00+00:00,0.0
2024-02-26 19:00:00+00:00,0.0
2024-02-26 20:00:00+00:00,0.0
2024-02-27 14:00:00+00:00,0.0
2024-02-27 15:00:00+00:00,0.0
2024-02-27 16:00:00+00:00,0.0
2024-02-27 17:00:00+00:00,0.0
2024-02-27 18:00:00+00:00,0.0
2024-02-27 19:00:00+00:00,0.0
2024-02-27 20:00:00+00:00,0.0
2024-02-28 14:00:00+00:00,0.0
2024-02-28 15:00:00+00:00,0.0
2024-02-28 16:00:00+00:00,0.0
2024-02-28 17:00:00+00:00,0.0
2024-02-28 18:00:00+00:00,0.0
2024-02-28 19:00:00+00:00,0.0
2024-02-28 20:00:00+00:00,0.0
2024-02-29 14:00:00+00:00,0.0
2024-02-29 15:00:00+00:00,0.0
2024-02-29 16:00:00+00:00,0.0
2024-02-29 17:00:00+00:00,0.0
2024-02-29 18:00:00+00:00,0.0
2024-02-29 19:00:00+00:00,0.0
2024-02-29 20:00:00+00:00,0.0
2024-03-01 14:00:00+00:00,0.0
2024-03-01 15:00:00+00:00,0.0
2024-03-01 16:00:00+00:00,0.0
2024-03-01 17:00:00+00:00,0.0
2024-03-01 18:00:00+00:00,0.0
2024-03-01 19:00:00+00:00,0.0
2024-03-01 20:00:00+00:00,0.0
2024-03-04 14:00:00+00:00,0.0
2024-03-04 15:00:00+00:00,0.0
2024-03-04 16:00:00+00:00,0.0
2024-03-04 17:00:00+00:00,0.0
2024-03-04 18:00:00+00:00,0.0
2024-03-04 19:00:00+00:00,0.0
2024-03-04 20:00:00+00:00,0.0
2024-03-05 14:00:00+00:00,0.0
2024-03-05 15:00:00+00:00,0.0
2024-03-05 16:00:00+00:00,0.0
2024-03-05 17:00:00+00:00,0.0
2024-03-05 18:00:00+00:00,0.0
2024-03-05 19:00:00+00:00,0.0
2024-03-05 20:00:00+00:00,0.0
2024-03-06 14:00:00+00:00,0.0
2024-03-06 15:00:00+00:00,0.0
2024-03-06 16:00:00+00:00,0.0
2024-03-06 17:00:00+00:00,0.0
2024-03-06 18:00:00+00:00,0.0
2024-03-06 19:00:00+00:00,0.0
2024-03-06 20:00:00+00:00,0.0
2024-03-07 14:00:00+00:00,0.0
2024-03-07 15:00:00+00:00,0.0
2024-03-07 16:00:00+00:00,0.0
2024-03-07 17:00:00+00:00,0.0
2024-03-07 18:00:00+00:00,0.0
2024-03-07 19:00:00+00:00,0.0
2024-03-07 20:00:00+00:00,0.0
2024-03-08 14:00:00+00:00,0.0
2024-03-08 15:00:00+00:00,0.0
2024-03-08 16:00:00+00:00,0.0
2024-03-08 17:00:00+00:00,0.0
2024-03-08 18:00:00+00:00,0.0
2024-03-08 19:00:00+00:00,0.0
2024-03-08 20:00:00+00:00,0.0
2024-03-11 13:00:00+00:00,0.0
2024-03-11 14:00:00+00:00,0.0
2024-03-11 15:00:00+00:00,0.0
2024-03-11 16:00:00+00:00,0.0
2024-03-11 17:00:00+00:00,0.0
2024-03-11 18:00:00+00:00,0.0
2024-03-11 19:00:00+00:00,0.0
2024-03-12 13:00:00+00:00,0.0
2024-03-12 14:00:00+00:00,0.0
2024-03-12 15:00:00+00:00,0.0
2024-03-12 16:00:00+00:00,0.0
2024-03-12 17:00:00+00:00,0.0
2024-03-12 18:00:00+00:00,0.0
2024-03-12 19:00:00+00:00,0.0
2024-03-13 13:00:00+00:00,0.0
2024-03-13 14:00:00+00:00,0.0
2024-03-13 15:00:00+00:00,0.0
2024-03-13 16:00:00+00:00,0.0
2024-03-13 17:00:00+00:00,0.0
2024-03-13 18:00:00+00:00,0.0
2024-03-13 19:00:00+00:00,0.0
2024-03-14 13:00:00+00:00,0.0
2024-03-14 14:00:00+00:00,0.0
2024-03-14 15:00:00+00:00,0.0
2024-03-14 16:00:00+00:00,0.0
2024-03-14 17:00:00+00:00,0.0
2024-03-14 18:00:00+00:00,0.0
2024-03-14 19:00:00+00:00,0.0
2024-03-15 13:00:00+00:00,0.0
2024-03-15 14:00:00+00:00,0.0
2024-03-15 15:00:00+00:00,0.0
2024-03-15 16:00:00+00:00,0.0
2024-03-15 17:00:00+00:00,0.0
2024-03-15 18:00:00+00:00,0.0
2024-03-15 19:00:00+00:00,0.0
2024-03-18 13:00:00+00:00,0.0
2024-03-18 14:00:00+00:00,0.0
2024-03-18 15:00:00+00:00,0.0
2024-03-18 16:00:00+00:00,0.0
2024-03-18 17:00:00+00:00,0.0
2024-03-18 18:00:00+00:00,0.0
2024-03-18 19:00:00+00:00,0.0
2024-03-19 13:00:00+00:00,0.0
2024-03-19 14:00:00+00:00,0.0
2024-03-19 15:00:00+00:00,0.0
2024-03-19 16:00:00+00:00,0.0
2024-03-19 17:00:00+00:00,0.0
2024-03-19 18:00:00+00:00,0.0
2024-03-19 19:00:00+00:00,0.0
2024-03-20 13:00:00+00:00,0.0
2024-03-20 14:00:00+00:00,0.0
2024-03-20 15:00:00+00:00,0.0
2024-03-20 16:00:00+00:00,0.0
2024-03-20 17:00:00+00:00,0.0
2024-03-20 18:00:00+00:00,0.0
2024-03-20 19:00:00+00:00,0.0
2024-03-21 13:00:00+00:00,0.0
2024-03-21 14:00:00+00:00,0.0
2024-03-21 15:00:00+00:00,0.0
2024-03-21 16:00:00+00:00,0.0
2024-03-21 17:00:00+00:00,0.0
2024-03-21 18:00:00+00:00,0.0
2024-03-21 19:00:00+00:00,0.0
2024-03-22 13:00:00+00:00,0.0
2024-03-22 14:00:00+00:00,0.0
2024-03-22 15:00:00+00:00,0.0
2024-03-22 16:00:00+00:00,0.0
2024-03-22 17:00:00+00:00,0.0
2024-03-22 18:00:00+00:00,0.0
2024-03-22 19:00:00+00:00,0.0
2024-03-25 13:00:00+00:00,0.0
2024-03-25 14:00:00+00:00,0.0
2024-03-25 15:00:00+00:00,0.0
2024-03-25 16:00:00+00:00,0.0
2024-03-25 17:00:00+00:00,0.0
2024-03-25 18:00:00+00:00,0.0
2024-03-25 19:00:00+00:00,0.0
2024-03-26 13:00:00+00:00,0.0
2024-03-26 14:00:00+00:00,0.0
2024-03-26 15:00:00+00:00,0.0
2024-03-26 16:00:00+00:00,0.0
2024-03-26 17:00:00+00:00,0.0
2024-03-26 18:00:00+00:00,0.0
2024-03-26 19:00:00+00:00,0.0
2024-03-27 13:00:00+00:00,0.0
2024-03-27 14:00:00+00:00,0.0
2024-03-27 15:00:00+00:00,0.0
2024-03-27 16:00:00+00:00,0.0
2024-03-27 17:00:00+00:00,0.0
2024-03-27 18:00:00+00:00,0.0
2024-03-27 19:00:00+00:00,0.0
2024-03-28 13:00:00+00:00,0.0
2024-03-28 14:00:00+00:00,0.0
2024-03-28 15:00:00+00:00,0.0
2024-03-28 16:00:00+00:00,0.0
2024-03-28 17:00:00+00:00,0.0
2024-03-28 18:00:00+00:00,0.0
2024-03-28 19:00:00+00:00,0.0
2024-04-01 13:00:00+00:00,0.0
2024-04-01 14:00:00+00:00,0.0
2024-04-01 15:00:00+00:00,0.0
2024-04-01 16:00:00+00:00,0.0
2024-04-01 17:00:00+00:00,0.0
2024-04-01 18:00:00+00:00,0.0
2024-04-01 19:00:00+00:00,0.0
2024-04-02 13:00:00+00:00,0.0
2024-04-02 14:00:00+00:00,0.0
2024-04-02 15:00:00+00:00,0.0
2024-04-02 16:00:00+00:00,0.0
2024-04-02 17:00:00+00:00,0.0
2024-04-02 18:00:00+00:00,0.0
2024-04-02 19:00:00+00:00,0.0
2024-04-03 13:00:00+00:00,0.0
2024-04-03 14:00:00+00:00,0.0
2024-04-03 15:00:00+00:00,0.0
2024-04-03 16:00:00+00:00,0.0
2024-04-03 17:00:00+00:00,0.0
2024-04-03 18:00:00+00:00,0.0
2024-04-03 19:00:00+00:00,0.0
2024-04-04 13:00:00+00:00,0.0
2024-04-04 14:00:00+00:00,0.0
2024-04-04 15:00:00+00:00,0.0
2024-04-04 16:00:00+00:00,0.0
2024-04-04 17:00:00+00:00,0.0
2024-04-04 18:00:00+00:00,0.0
2024-04-04 19:00:00+00:00,0.0
2024-04-05 13:00:00+00:00,0.0
2024-04-05 14:00:00+00:00,0.0
2024-04-05 15:00:00+00:00,0.0
2024-04-05 16:00:00+00:00,0.0
2024-04-05 17:00:00+00:00,0.0
2024-04-05 18:00:00+00:00,0.0
2024-04-05 19:00:00+00:00,0.0
2024-04-08 13:00:00+00:00,0.0
2024-04-08 14:00:00+00:00,0.0
2024-04-08 15:00:00+00:00,0.0
2024-04-08 16:00:00+00:00,0.0
2024-04-08 17:00:00+00:00,0.0
2024-04-08 18:00:00+00:00,0.0
2024-04-08 19:00:00+00:00,0.0
2024-04-09 13:00:00+00:00,0.0
2024-04-09 14:00:00+00:00,0.0
2024-04-09 15:00:00+00:00,0.0
2024-04-09 16:00:00+00:00,0.0
2024-04-09 17:00:00+00:00,0.0
2024-04-09 18:00:00+00:00,0.0
2024-04-09 19:00:00+00:00,0.0
2024-04-10 13:00:00+00:00,0.0
2024-04-10 14:00:00+00:00,0.0
2024-04-10 15:00:00+00:00,0.0
2024-04-10 16:00:00+00:00,0.0
2024-04-10 17:00:00+00:00,0.0
2024-04-10 18:00:00+00:00,0.0
2024-04-10 19:00:00+00:00,0.0
2024-04-11 13:00:00+00:00,0.0
2024-04-11 14:00:00+00:00,0.0
2024-04-11 15:00:00+00:00,0.0
2024-04-11 16:00:00+00:00,0.0
2024-04-11 17:00:00+00:00,0.0
2024-04-11 18:00:00+00:00,0.0
2024-04-11 19:00:00+00:00,0.0
2024-04-12 13:00:00+00:00,0.0
2024-04-12 14:00:00+00:00,0.0
2024-04-12 15:00:00+00:00,0.0
2024-04-12 16:00:00+00:00,0.0
2024-04-12 17:00:00+00:00,0.0
2024-04-12 18:00:00+00:00,0.0
2024-04-12 19:00:00+00:00,0.0
2024-04-15 13:00:00+00:00,0.0
2024-04-15 14:00:00+00:00,0.0
2024-04-15 15:00:00+00:00,0.0
2024-04-15 16:00:00+00:00,0.0
2024-04-15 17:00:00+00:00,0.0
2024-04-15 18:00:00+00:00,0.0
2024-04-15 19:00:00+00:00,0.0
2024-04-16 13:00:00+00:00,0.0
2024-04-16 14:00:00+00:00,0.0
2024-04-16 15:00:00+00:00,0.0
2024-04-16 16:00:00+00:00,0.0
2024-04-16 17:00:00+00:00,0.0
2024-04-16 18:00:00+00:00,0.0
2024-04-16 19:00:00+00:00,0.0
2024-04-17 13:00:00+00:00,0.0
2024-04-17 14:00:00+00:00,0.0
2024-04-17 15:00:00+00:00,0.0
2024-04-17 16:00:00+00:00,0.0
2024-04-17 17:00:00+00:00,0.0
2024-04-17 18:00:00+00:00,0.0
2024-04-17 19:00:00+00:00,0.0
2024-04-18 13:00:00+00:00,0.0
2024-04-18 14:00:00+00:00,0.0
2024-04-18 15:00:00+00:00,0.0
2024-04-18 16:00:00+00:00,0.0
2024-04-18 17:00:00+00:00,0.0
2024-04-18 18:00:00+00:00,0.0
2024-04-18 19:00:00+00:00,0.0
2024-04-19 13:00:00+00:00,0.0
2024-04-19 14:00:00+00:00,0.0
2024-04-19 15:00:00+00:00,0.0
2024-04-19 16:00:00+00:00,0.0
2024-04-19 17:00:00+00:00,0.0
2024-04-19 18:00:00+00:00,0.0
2024-04-19 19:00:00+00:00,0.0
2024-04-22 13:00:00+00:00,0.0
2024-04-22 14:00:00+00:00,0.0
2024-04-22 15:00:00+00:00,0.0
2024-04-22 16:00:00+00:00,0.0
2024-04-22 17:00:00+00:00,0.0
2024-04-22 18:00:00+00:00,0.0
2024-04-22 19:00:00+00:00,0.0
2024-04-23 13:00:00+00:00,0.0
2024-04-23 14:00:00+00:00,0.0
2024-04-23 15:00:00+00:00,0.0
2024-04-23 16:00:00+00:00,0.0
2024-04-23 17:00:00+00:00,0.0
2024-04-23 18:00:00+00:00,0.0
2024-04-23 19:00:00+00:00,0.0
2024-04-24 13:00:00+00:00,0.0
2024-04-24 14:00:00+00:00,0.0
2024-04-24 15:00:00+00:00,0.0
2024-04-24 16:00:00+00:00,0.0
2024-04-24 17:00:00+00:00,0.0
2024-04-24 18:00:00+00:00,0.0
2024-04-24 19:00:00+00:00,0.0
2024-04-25 13:00:00+00:00,0.0
2024-04-25 14:00:00+00:00,0.0
2024-04-25 15:00:00+00:00,0.0
2024-04-25 16:00:00+00:00,0.0
2024-04-25 17:00:00+00:00,0.0
2024-04-25 18:00:00+00:00,0.0
2024-04-25 19:00:00+00:00,0.0
2024-04-26 13:00:00+00:00,0.0
2024-04-26 14:00:00+00:00,0.0
2024-04-26 15:00:00+00:00,0.0
2024-04-26 16:00:00+00:00,0.0
2024-04-26 17:00:00+00:00,0.0
2024-04-26 18:00:00+00:00,0.0
2024-04-26 19:00:00+00:00,0.0
2024-04-29 13:00:00+00:00,0.0
2024-04-29 14:00:00+00:00,0.0
2024-04-29 15:00:00+00:00,0.0
2024-04-29 16:00:00+00:00,0.0
2024-04-29 17:00:00+00:00,0.0
2024-04-29 18:00:00+00:00,0.0
2024-04-29 19:00:00+00:00,0.0
2024-04-30 13:00:00+00:00,0.0
2024-04-30 14:00:00+00:00,0.0
2024-04-30 15:00:00+00:00,0.0
2024-04-30 16:00:00+00:00,0.0
2024-04-30 17:00:00+00:00,0.0
2024-04-30 18:00:00+00:00,0.0
2024-04-30 19:00:00+00:00,0.0
2024-05-01 13:00:00+00:00,0.0
2024-05-01 14:00:00+00:00,0.0
2024-05-01 15:00:00+00:00,0.0
2024-05-01 16:00:00+00:00,0.0
2024-05-01 17:00:00+00:00,0.0
2024-05-01 18:00:00+00:00,0.0
2024-05-01 19:00:00+00:00,0.0
2024-05-02 13:00:00+00:00,0.0
2024-05-02 14:00:00+00:00,0.0
2024-05-02 15:00:00+00:00,0.0
2024-05-02 16:00:00+00:00,0.0
2024-05-02 17:00:00+00:00,0.0
2024-05-02 18:00:00+00:00,0.0
2024-05-02 19:00:00+00:00,0.0
2024-05-03 13:00:00+00:00,0.0
2024-05-03 14:00:00+00:00,0.0
2024-05-03 15:00:00+00:00,0.0
2024-05-03 16:00:00+00:00,0.0
2024-05-03 17:00:00+00:00,0.0
2024-05-03 18:00:00+00:00,0.0
2024-05-03 19:00:00+00:00,0.0
2024-05-06 13:00:00+00:00,0.0
2024-05-06 14:00:00+00:00,0.0
2024-05-06 15:00:00+00:00,0.0
2024-05-06 16:00:00+00:00,0.0
2024-05-06 17:00:00+00:00,0.0
2024-05-06 18:00:00+00:00,0.0
2024-05-06 19:00:00+00:00,0.0
2024-05-07 13:00:00+00:00,0.0
2024-05-07 14:00:00+00:00,0.0
2024-05-07 15:00:00+00:00,0.0
2024-05-07 16:00:00+00:00,0.0
2024-05-07 17:00:00+00:00,0.0
2024-05-07 18:00:00+00:00,0.0
2024-05-07 19:00:00+00:00,0.0
2024-05-08 13:00:00+00:00,0.0
2024-05-08 14:00:00+00:00,0.0
2024-05-08 15:00:00+00:00,0.0
2024-05-08 16:00:00+00:00,0.0
2024-05-08 17:00:00+00:00,0.0
2024-05-08 18:00:00+00:00,0.0
2024-05-08 19:00:00+00:00,0.0
2024-05-09 13:00:00+00:00,0.0
2024-05-09 14:00:00+00:00,0.0
2024-05-09 15:00:00+00:00,0.0
2024-05-09 16:00:00+00:00,0.0
2024-05-09 17:00:00+00:00,0.0
2024-05-09 18:00:00+00:00,0.0
2024-05-09 19:00:00+00:00,0.0
2024-05-10 13:00:00+00:00,0.0
2024-05-10 14:00:00+00:00,0.0
2024-05-10 15:00:00+00:00,0.0
2024-05-10 16:00:00+00:00,0.0
2024-05-10 17:00:00+00:00,0.0
2024-05-10 18:00:00+00:00,0.0
2024-05-10 19:00:00+00:00,0.0
2024-05-13 13:00:00+00:00,0.0
2024-05-13 14:00:00+00:00,0.0
2024-05-13 15:00:00+00:00,0.0
2024-05-13 16:00:00+00:00,0.0
2024-05-13 17:00:00+00:00,0.0
2024-05-13 18:00:00+00:00,0.0
2024-05-13 19:00:00+00:00,0.0
2024-05-14 13:00:00+00:00,0.0
2024-05-14 14:00:00+00:00,0.0
2024-05-14 15:00:00+00:00,0.0
2024-05-14 16:00:00+00:00,0.0
2024-05-14 17:00:00+00:00,0.0
2024-05-14 18:00:00+00:00,0.0
2024-05-14 19:00:00+00:00,0.0
2024-05-15 13:00:00+00:00,0.0
2024-05-15 14:00:00+00:00,0.0
2024-05-15 15:00:00+00:00,0.0
2024-05-15 16:00:00+00:00,0.0
2024-05-15 17:00:00+00:00,0.0
2024-05-15 18:00:00+00:00,0.0
2024-05-15 19:00:00+00:00,0.0
2024-05-16 13:00:00+00:00,0.0
2024-05-16 14:00:00+00:00,0.0
2024-05-16 15:00:00+00:00,0.0
2024-05-16 16:00:00+00:00,0.0
2024-05-16 17:00:00+00:00,0.0
2024-05-16 18:00:00+00:00,0.0
2024-05-16 19:00:00+00:00,0.0
2024-05-17 13:00:00+00:00,0.0
2024-05-17 14:00:00+00:00,0.0
2024-05-17 15:00:00+00:00,0.0
2024-05-17 16:00:00+00:00,0.0
2024-05-17 17:00:00+00:00,0.0
2024-05-17 18:00:00+00:00,0.0
2024-05-17 19:00:00+00:00,0.0
2024-05-20 13:00:00+00:00,0.0
2024-05-20 14:00:00+00:00,0.0
2024-05-20 15:00:00+00:00,0.0
2024-05-20 16:00:00+00:00,0.0
2024-05-20 17:00:00+00:00,0.0
2024-05-20 18:00:00+00:00,0.0
2024-05-20 19:00:00+00:00,0.0
2024-05-21 13:00:00+00:00,0.0
2024-05-21 14:00:00+00:00,0.0
2024-05-21 15:00:00+00:00,0.0
2024-05-21 16:00:00+00:00,0.0
2024-05-21 17:00:00+00:00,0.0
2024-05-21 18:00:00+00:00,0.0
2024-05-21 19:00:00+00:00,0.0
2024-05-22 13:00:00+00:00,0.0
2024-05-22 14:00:00+00:00,0.0
2024-05-22 15:00:00+00:00,0.0
2024-05-22 16:00:00+00:00,0.0
2024-05-22 17:00:00+00:00,0.0
2024-05-22 18:00:00+00:00,0.0
2024-05-22 19:00:00+00:00,0.0
2024-05-23 13:00:00+00:00,0.0
2024-05-23 14:00:00+00:00,0.0
2024-05-23 15:00:00+00:00,0.0
2024-05-23 16:00:00+00:00,0.0
2024-05-23 17:00:00+00:00,0.0
2024-05-23 18:00:00+00:00,0.0
2024-05-23 19:00:00+00:00,0.0
2024-05-24 13:00:00+00:00,0.0
2024-05-24 14:00:00+00:00,0.0
2024-05-24 15:00:00+00:00,0.0
2024-05-24 16:00:00+00:00,0.0
2024-05-24 17:00:00+00:00,0.0
2024-05-24 18:00:00+00:00,0.0
2024-05-24 19:00:00+00:00,0.0
2024-05-28 13:00:00+00:00,0.0
2024-05-28 14:00:00+00:00,0.0
2024-05-28 15:00:00+00:00,0.0
2024-05-28 16:00:00+00:00,0.0
2024-05-28 17:00:00+00:00,0.0
2024-05-28 18:00:00+00:00,0.0
2024-05-28 19:00:00+00:00,0.0
2024-05-29 13:00:00+00:00,0.0
2024-05-29 14:00:00+00:00,0.0
2024-05-29 15:00:00+00:00,0.0
2024-05-29 16:00:00+00:00,0.0
2024-05-29 17:00:00+00:00,0.0
2024-05-29 18:00:00+00:00,0.0
2024-05-29 19:00:00+00:00,0.0
2024-05-30 13:00:00+00:00,0.0
2024-05-30 14:00:00+00:00,0.0
2024-05-30 15:00:00+00:00,0.0
2024-05-30 16:00:00+00:00,0.0
2024-05-30 17:00:00+00:00,0.0
2024-05-30 18:00:00+00:00,0.0
2024-05-30 19:00:00+00:00,0.0
2024-05-31 13:00:00+00:00,0.0
2024-05-31 14:00:00+00:00,0.0
2024-05-31 15:00:00+00:00,0.0
2024-05-31 16:00:00+00:00,0.0
2024-05-31 17:00:00+00:00,0.0
2024-05-31 18:00:00+00:00,0.0
2024-05-31 19:00:00+00:00,0.0
2024-06-03 13:00:00+00:00,0.0
2024-06-03 14:00:00+00:00,0.0
2024-06-03 15:00:00+00:00,0.0
2024-06-03 16:00:00+00:00,0.0
2024-06-03 17:00:00+00:00,0.0
2024-06-03 18:00:00+00:00,0.0
2024-06-03 19:00:00+00:00,0.0
2024-06-04 13:00:00+00:00,0.0
2024-06-04 14:00:00+00:00,0.0
2024-06-04 15:00:00+00:00,0.0
2024-06-04 16:00:00+00:00,0.0
2024-06-04 17:00:00+00:00,0.0
2024-06-04 18:00:00+00:00,0.0
2024-06-04 19:00:00+00:00,0.0
2024-06-05 13:00:00+00:00,0.0
2024-06-05 14:00:00+00:00,0.0
2024-06-05 17:00:00+00:00,0.0
2024-06-05 19:00:00+00:00,0.0
2024-06-06 13:00:00+00:00,0.0
2024-06-06 14:00:00+00:00,0.0
2024-06-07 13:00:00+00:00,0.0
2024-06-07 14:00:00+00:00,0.0
2024-06-07 15:00:00+00:00,0.0
2024-06-07 16:00:00+00:00,0.0
2024-06-07 17:00:00+00:00,0.0
2024-06-07 18:00:00+00:00,0.0
2024-06-07 19:00:00+00:00,0.0
2024-06-10 13:00:00+00:00,0.0
2024-06-10 14:00:00+00:00,0.0
2024-06-10 16:00:00+00:00,0.0
2024-06-10 17:00:00+00:00,0.0
2024-06-10 18:00:00+00:00,0.0
2024-06-10 19:00:00+00:00,0.0
2024-06-11 13:00:00+00:00,0.0
2024-06-11 14:00:00+00:00,0.0
2024-06-11 15:00:00+00:00,0.0
2024-06-11 17:00:00+00:00,0.0
2024-06-11 18:00:00+00:00,0.0
2024-06-11 19:00:00+00:00,0.0
2024-06-12 13:00:00+00:00,0.0
2024-06-12 15:00:00+00:00,0.0
2024-06-12 18:00:00+00:00,0.0
2024-06-12 19:00:00+00:00,0.0
2024-06-13 13:00:00+00:00,0.0
2024-06-13 14:00:00+00:00,0.0
2024-06-13 15:00:00+00:00,0.0
2024-06-13 17:00:00+00:00,0.0
2024-06-13 18:00:00+00:00,0.0
2024-06-13 19:00:00+00:00,0.0
2024-06-14 13:00:00+00:00,0.0
2024-06-14 14:00:00+00:00,0.0
2024-06-14 15:00:00+00:00,0.0
2024-06-14 17:00:00+00:00,0.0
2024-06-14 19:00:00+00:00,0.0
2024-06-17 13:00:00+00:00,0.0
2024-06-17 14:00:00+00:00,0.0
2024-06-17 16:00:00+00:00,0.0
2024-06-17 17:00:00+00:00,0.0
2024-06-17 18:00:00+00:00,0.0
2024-06-17 19:00:00+00:00,0.0
2024-06-18 15:00:00+00:00,0.0
2024-06-18 16:00:00+00:00,0.0
2024-06-18 17:00:00+00:00,0.0
2024-06-18 18:00:00+00:00,0.0
2024-06-18 19:00:00+00:00,0.0
2024-06-20 13:00:00+00:00,0.0
2024-06-20 15:00:00+00:00,0.0
2024-06-20 16:00:00+00:00,0.0
2024-06-20 17:00:00+00:00,0.0
2024-06-20 18:00:00+00:00,0.0
2024-06-21 13:00:00+00:00,0.0
2024-06-21 17:00:00+00:00,0.0
2024-06-21 19:00:00+00:00,0.0
2024-06-24 13:00:00+00:00,0.0
2024-06-24 14:00:00+00:00,0.0
2024-06-24 15:00:00+00:00,0.0
2024-06-24 19:00:00+00:00,0.0
2024-06-25 13:00:00+00:00,0.0
2024-06-25 14:00:00+00:00,0.0
2024-06-25 15:00:00+00:00,0.0
2024-06-25 16:00:00+00:00,0.0
2024-06-25 17:00:00+00:00,0.0
2024-06-25 19:00:00+00:00,0.0
2024-06-26 13:00:00+00:00,0.0
2024-06-26 14:00:00+00:00,0.0
2024-06-26 15:00:00+00:00,0.0
2024-06-26 16:00:00+00:00,0.0
2024-06-26 18:00:00+00:00,0.0
2024-06-26 19:00:00+00:00,0.0
2024-06-27 14:00:00+00:00,0.0
2024-06-27 18:00:00+00:00,0.0
2024-06-27 19:00:00+00:00,0.0
2024-06-28 13:00:00+00:00,0.0
2024-06-28 15:00:00+00:00,0.0
2024-06-28 17:00:00+00:00,0.0
2024-06-28 18:00:00+00:00,0.0
2024-06-28 19:00:00+00:00,0.0
2024-07-01 13:00:00+00:00,0.0
2024-07-01 14:00:00+00:00,0.0
2024-07-01 15:00:00+00:00,0.0
2024-07-01 17:00:00+00:00,0.0
2024-07-01 18:00:00+00:00,0.0
2024-07-02 13:00:00+00:00,0.0
2024-07-02 16:00:00+00:00,0.0
2024-07-02 18:00:00+00:00,0.0
2024-07-02 19:00:00+00:00,0.0
2024-07-03 13:00:00+00:00,0.0
2024-07-03 14:00:00+00:00,0.0
2024-07-03 15:00:00+00:00,0.0
2024-07-05 13:00:00+00:00,0.0
2024-07-05 15:00:00+00:00,0.0
2024-07-05 16:00:00+00:00,0.0
2024-07-05 18:00:00+00:00,0.0
2024-07-05 19:00:00+00:00,0.0
2024-07-08 13:00:00+00:00,0.0
2024-07-08 14:00:00+00:00,0.0
2024-07-08 15:00:00+00:00,0.0
2024-07-08 16:00:00+00:00,0.0
2024-07-08 17:00:00+00:00,0.0
2024-07-08 18:00:00+00:00,0.0
2024-07-08 19:00:00+00:00,0.0
2024-07-09 13:00:00+00:00,0.0
2024-07-09 14:00:00+00:00,0.0
2024-07-09 16:00:00+00:00,0.0
2024-07-09 17:00:00+00:00,0.0
2024-07-09 18:00:00+00:00,0.0
2024-07-10 13:00:00+00:00,0.0
2024-07-10 14:00:00+00:00,0.0
2024-07-10 15:00:00+00:00,0.0
2024-07-10 16:00:00+00:00,0.0
2024-07-10 17:00:00+00:00,0.0
2024-07-10 18:00:00+00:00,0.0
2024-07-10 19:00:00+00:00,0.0
2024-07-11 13:00:00+00:00,0.0
2024-07-11 14:00:00+00:00,0.0
2024-07-11 15:00:00+00:00,0.0
2024-07-11 16:00:00+00:00,0.0
2024-07-11 17:00:00+00:00,0.0
2024-07-11 18:00:00+00:00,0.0
2024-07-12 13:00:00+00:00,0.0
2024-07-12 14:00:00+00:00,0.0
2024-07-12 16:00:00+00:00,0.0
2024-07-15 14:00:00+00:00,0.0
2024-07-15 15:00:00+00:00,0.0
2024-07-15 16:00:00+00:00,0.0
2024-07-15 17:00:00+00:00,0.0
2024-07-15 18:00:00+00:00,0.0
2024-07-15 19:00:00+00:00,0.0
2024-07-16 13:00:00+00:00,0.0
2024-07-16 14:00:00+00:00,0.0
2024-07-16 17:00:00+00:00,0.0
2024-07-16 18:00:00+00:00,0.0
2024-07-16 19:00:00+00:00,0.0
2024-07-17 13:00:00+00:00,0.0
2024-07-17 14:00:00+00:00,0.0
2024-07-17 16:00:00+00:00,0.0
2024-07-17 17:00:00+00:00,0.0
2024-07-17 18:00:00+00:00,0.0
2024-07-17 19:00:00+00:00,0.0
2024-07-18 13:00:00+00:00,0.0
2024-07-18 14:00:00+00:00,0.0
2024-07-18 18:00:00+00:00,0.0
2024-07-18 19:00:00+00:00,0.0
2024-07-19 13:00:00+00:00,0.0
2024-07-19 14:00:00+00:00,0.0
2024-07-19 15:00:00+00:00,0.0
2024-07-19 17:00:00+00:00,0.0
2024-07-19 19:00:00+00:00,0.0
2024-07-22 13:00:00+00:00,0.0
2024-07-22 14:00:00+00:00,0.0
2024-07-22 15:00:00+00:00,0.0
2024-07-22 18:00:00+00:00,0.0
2024-07-22 19:00:00+00:00,0.0
2024-07-23 13:00:00+00:00,0.0
2024-07-23 15:00:00+00:00,0.0
2024-07-23 18:00:00+00:00,0.0
2024-07-23 19:00:00+00:00,0.0
2024-07-24 13:00:00+00:00,0.0
2024-07-24 14:00:00+00:00,0.0
2024-07-24 15:00:00+00:00,0.0
2024-07-24 16:00:00+00:00,0.0
2024-07-24 17:00:00+00:00,0.0
2024-07-24 18:00:00+00:00,0.0
2024-07-24 19:00:00+00:00,0.0
2024-07-25 13:00:00+00:00,0.0
2024-07-25 14:00:00+00:00,0.0
2024-07-25 15:00:00+00:00,0.0
2024-07-25 16:00:00+00:00,0.0
2024-07-25 17:00:00+00:00,0.0
2024-07-25 18:00:00+00:00,0.0
2024-07-25 19:00:00+00:00,0.0
2024-07-26 13:00:00+00:00,0.0
2024-07-26 14:00:00+00:00,0.0
2024-07-26 15:00:00+00:00,0.0
2024-07-26 16:00:00+00:00,0.0
2024-07-26 17:00:00+00:00,0.0
2024-07-26 18:00:00+00:00,0.0
2024-07-26 19:00:00+00:00,0.0
2024-07-29 13:00:00+00:00,0.0
2024-07-29 14:00:00+00:00,0.0
2024-07-29 15:00:00+00:00,0.0
2024-07-29 16:00:00+00:00,0.0
2024-07-29 18:00:00+00:00,0.0
2024-07-30 13:00:00+00:00,0.0
2024-07-30 14:00:00+00:00,0.0
2024-07-30 15:00:00+00:00,0.0
2024-07-30 16:00:00+00:00,0.0
2024-07-30 17:00:00+00:00,0.0
2024-07-30 18:00:00+00:00,0.0
2024-07-30 19:00:00+00:00,0.0
2024-07-31 13:00:00+00:00,0.0
2024-07-31 14:00:00+00:00,0.0
2024-07-31 16:00:00+00:00,0.0
2024-07-31 17:00:00+00:00,0.0
2024-07-31 18:00:00+00:00,0.0
2024-07-31 19:00:00+00:00,0.0
2024-08-01 13:00:00+00:00,0.0
2024-08-01 14:00:00+00:00,0.0
2024-08-01 15:00:00+00:00,0.0
2024-08-01 16:00:00+00:00,0.0
2024-08-01 17:00:00+00:00,0.0
2024-08-01 18:00:00+00:00,0.0
2024-08-01 19:00:00+00:00,0.0
2024-08-02 13:00:00+00:00,0.0
2024-08-02 14:00:00+00:00,0.0
2024-08-02 15:00:00+00:00,0.0
2024-08-02 16:00:00+00:00,0.0
2024-08-02 17:00:00+00:00,0.0
2024-08-02 19:00:00+00:00,0.0
2024-08-05 13:00:00+00:00,0.0
2024-08-05 14:00:00+00:00,0.0
2024-08-05 15:00:00+00:00,0.0
2024-08-05 16:00:00+00:00,0.0
2024-08-05 17:00:00+00:00,0.0
2024-08-05 18:00:00+00:00,0.0
2024-08-05 19:00:00+00:00,0.0
2024-08-06 13:00:00+00:00,0.0
2024-08-06 14:00:00+00:00,0.0
2024-08-06 15:00:00+00:00,0.0
2024-08-06 16:00:00+00:00,0.0
2024-08-06 17:00:00+00:00,0.0
2024-08-06 18:00:00+00:00,0.0
2024-08-06 19:00:00+00:00,0.0
2024-08-07 13:00:00+00:00,0.0
2024-08-07 14:00:00+00:00,0.0
2024-08-07 15:00:00+00:00,0.0
2024-08-07 16:00:00+00:00,0.0
2024-08-07 17:00:00+00:00,0.0
2024-08-07 19:00:00+00:00,0.0
2024-08-08 13:00:00+00:00,0.0
2024-08-08 14:00:00+00:00,0.0
2024-08-08 15:00:00+00:00,0.0
2024-08-08 16:00:00+00:00,0.0
2024-08-08 17:00:00+00:00,0.0
2024-08-08 18:00:00+00:00,0.0
2024-08-08 19:00:00+00:00,0.0
2024-08-09 13:00:00+00:00,0.0
2024-08-09 14:00:00+00:00,0.0
2024-08-09 15:00:00+00:00,0.0
2024-08-09 16:00:00+00:00,0.0
2024-08-09 17:00:00+00:00,0.0
2024-08-09 18:00:00+00:00,0.0
2024-08-12 14:00:00+00:00,0.0
2024-08-12 16:00:00+00:00,0.0
2024-08-12 17:00:00+00:00,0.0
2024-08-12 18:00:00+00:00,0.0
2024-08-12 19:00:00+00:00,0.0
2024-08-13 13:00:00+00:00,0.0
2024-08-13 16:00:00+00:00,0.0
2024-08-13 18:00:00+00:00,0.0
2024-08-13 19:00:00+00:00,0.0
2024-08-14 13:00:00+00:00,0.0
2024-08-14 14:00:00+00:00,0.0
2024-08-14 15:00:00+00:00,0.0
2024-08-14 18:00:00+00:00,0.0
2024-08-14 19:00:00+00:00,0.0
2024-08-15 13:00:00+00:00,0.0
2024-08-15 14:00:00+00:00,0.0
2024-08-15 16:00:00+00:00,0.0
2024-08-15 17:00:00+00:00,0.0
2024-08-15 18:00:00+00:00,0.0
2024-08-16 13:00:00+00:00,0.0
2024-08-16 14:00:00+00:00,0.0
2024-08-16 15:00:00+00:00,0.0
2024-08-16 17:00:00+00:00,0.0
2024-08-16 18:00:00+00:00,0.0
2024-08-16 19:00:00+00:00,0.0
2024-08-19 13:00:00+00:00,0.0
2024-08-19 14:00:00+00:00,0.0
2024-08-19 19:00:00+00:00,0.0
2024-08-20 13:00:00+00:00,0.0
2024-08-20 15:00:00+00:00,0.0
2024-08-20 17:00:00+00:00,0.0
2024-08-20 18:00:00+00:00,0.0
2024-08-21 13:00:00+00:00,0.0
2024-08-21 14:00:00+00:00,0.0
2024-08-21 15:00:00+00:00,0.0
2024-08-21 16:00:00+00:00,0.0
2024-08-21 17:00:00+00:00,0.0
2024-08-21 19:00:00+00:00,0.0
2024-08-22 13:00:00+00:00,0.0
2024-08-22 14:00:00+00:00,0.0
2024-08-22 15:00:00+00:00,0.0
2024-08-22 17:00:00+00:00,0.0
2024-08-22 19:00:00+00:00,0.0
2024-08-23 13:00:00+00:00,0.0
2024-08-23 14:00:00+00:00,0.0
2024-08-23 15:00:00+00:00,0.0
2024-08-23 16:00:00+00:00,0.0
2024-08-23 17:00:00+00:00,0.0
2024-08-23 18:00:00+00:00,0.0
2024-08-26 13:00:00+00:00,0.0
2024-08-26 14:00:00+00:00,0.0
2024-08-26 15:00:00+00:00,0.0
2024-08-26 18:00:00+00:00,0.0
2024-08-26 19:00:00+00:00,0.0
2024-08-27 13:00:00+00:00,0.0
2024-08-27 14:00:00+00:00,0.0
2024-08-27 16:00:00+00:00,0.0
2024-08-27 19:00:00+00:00,0.0
2024-08-28 16:00:00+00:00,0.0
2024-08-28 17:00:00+00:00,0.0
2024-08-28 19:00:00+00:00,0.0
2024-08-29 13:00:00+00:00,0.0
2024-08-29 14:00:00+00:00,0.0
2024-08-29 15:00:00+00:00,0.0
2024-08-29 16:00:00+00:00,0.0
2024-08-29 17:00:00+00:00,0.0
2024-08-29 19:00:00+00:00,0.0
2024-08-30 13:00:00+00:00,0.0
2024-08-30 14:00:00+00:00,0.0
2024-08-30 16:00:00+00:00,0.0
2024-08-30 19:00:00+00:00,0.0
2024-09-03 13:00:00+00:00,0.0
2024-09-03 14:00:00+00:00,0.0
2024-09-03 16:00:00+00:00,0.0
2024-09-03 17:00:00+00:00,0.0
2024-09-03 19:00:00+00:00,0.0
2024-09-04 13:00:00+00:00,0.0
2024-09-04 14:00:00+00:00,0.0
2024-09-04 19:00:00+00:00,0.0
2024-09-05 13:00:00+00:00,0.0
2024-09-05 14:00:00+00:00,0.0
2024-09-05 15:00:00+00:00,0.0
2024-09-05 16:00:00+00:00,0.0
2024-09-05 17:00:00+00:00,0.0
2024-09-05 19:00:00+00:00,0.0
2024-09-06 13:00:00+00:00,0.0
2024-09-06 14:00:00+00:00,0.0
2024-09-06 16:00:00+00:00,0.0
2024-09-06 18:00:00+00:00,0.0
2024-09-06 19:00:00+00:00,0.0
2024-09-09 13:00:00+00:00,0.0
2024-09-09 14:00:00+00:00,0.0
2024-09-09 15:00:00+00:00,0.0
2024-09-09 17:00:00+00:00,0.0
2024-09-09 18:00:00+00:00,0.0
2024-09-09 19:00:00+00:00,0.0
2024-09-10 13:00:00+00:00,0.0
2024-09-10 14:00:00+00:00,0.0
2024-09-10 15:00:00+00:00,0.0
2024-09-10 17:00:00+00:00,0.0
2024-09-10 18:00:00+00:00,0.0
2024-09-10 19:00:00+00:00,0.0
2024-09-11 13:00:00+00:00,0.0
2024-09-11 14:00:00+00:00,0.0
2024-09-11 15:00:00+00:00,0.0
2024-09-11 16:00:00+00:00,0.0
2024-09-11 19:00:00+00:00,0.0
2024-09-12 13:00:00+00:00,0.0
2024-09-12 14:00:00+00:00,0.0
2024-09-12 15:00:00+00:00,0.0
2024-09-12 16:00:00+00:00,0.0
2024-09-12 17:00:00+00:00,0.0
2024-09-12 18:00:00+00:00,0.0
2024-09-12 19:00:00+00:00,0.0
2024-09-13 13:00:00+00:00,0.0
2024-09-13 14:00:00+00:00,0.0
2024-09-13 15:00:00+00:00,0.0
2024-09-16 13:00:00+00:00,0.0
2024-09-16 14:00:00+00:00,0.0
2024-09-16 15:00:00+00:00,0.0
2024-09-16 16:00:00+00:00,0.0
2024-09-16 17:00:00+00:00,0.0
2024-09-16 18:00:00+00:00,0.0
2024-09-16 19:00:00+00:00,0.0
2024-09-17 13:00:00+00:00,0.0
2024-09-17 14:00:00+00:00,0.0
2024-09-17 16:00:00+00:00,0.0
2024-09-17 18:00:00+00:00,0.0
2024-09-17 19:00:00+00:00,0.0
2024-09-18 13:00:00+00:00,0.0
2024-09-18 14:00:00+00:00,0.0
2024-09-18 15:00:00+00:00,0.0
2024-09-18 17:00:00+00:00,0.0
2024-09-18 18:00:00+00:00,0.0
2024-09-18 19:00:00+00:00,0.0
2024-09-19 13:00:00+00:00,0.0
2024-09-19 14:00:00+00:00,0.0
2024-09-19 15:00:00+00:00,0.0
2024-09-19 17:00:00+00:00,0.0
2024-09-19 18:00:00+00:00,0.0
2024-09-20 13:00:00+00:00,0.0
2024-09-20 18:00:00+00:00,0.0
2024-09-20 19:00:00+00:00,0.0
2024-09-23 13:00:00+00:00,0.0
2024-09-23 14:00:00+00:00,0.0
2024-09-23 15:00:00+00:00,0.0
2024-09-23 16:00:00+00:00,0.0
2024-09-23 18:00:00+00:00,0.0
2024-09-23 19:00:00+00:00,0.0
2024-09-24 13:00:00+00:00,0.0
2024-09-24 14:00:00+00:00,0.0
2024-09-24 15:00:00+00:00,0.0
2024-09-24 18:00:00+00:00,0.0
2024-09-24 19:00:00+00:00,0.0
2024-09-25 13:00:00+00:00,0.0
2024-09-25 14:00:00+00:00,0.0
2024-09-25 16:00:00+00:00,0.0
2024-09-25 18:00:00+00:00,0.0
2024-09-26 13:00:00+00:00,0.0
2024-09-26 14:00:00+00:00,0.0
2024-09-26 15:00:00+00:00,0.0
2024-09-26 16:00:00+00:00,0.0
2024-09-26 17:00:00+00:00,0.0
2024-09-26 18:00:00+00:00,0.0
2024-09-26 19:00:00+00:00,0.0
2024-09-27 13:00:00+00:00,0.0
2024-09-27 14:00:00+00:00,-51.91247446733158
2024-09-27 16:00:00+00:00,35.68040600828155
2024-09-27 17:00:00+00:00,65.24093706106403
2024-09-27 18:00:00+00:00,88.67628997956166
2024-09-27 19:00:00+00:00,74.6808479127861
2024-09-30 13:00:00+00:00,160.1798979721815
2024-09-30 14:00:00+00:00,217.23686538821232
2024-09-30 15:00:00+00:00,200.06145414229874
2024-09-30 16:00:00+00:00,182.14099204433109
2024-09-30 17:00:00+00:00,185.34479206659213
2024-09-30 19:00:00+00:00,152.04045884120384
2024-10-01 13:00:00+00:00,204.31464369203727
2024-10-01 14:00:00+00:00,206.40915498952964
2024-10-01 15:00:00+00:00,219.3172833314574
2024-10-01 16:00:00+00:00,230.36711650807143
2024-10-01 17:00:00+00:00,220.38910148153172
2024-10-01 19:00:00+00:00,236.61073492694376
2024-10-02 13:00:00+00:00,248.98444292350132
2024-10-02 14:00:00+00:00,227.65956675351882
2024-10-02 15:00:00+00:00,225.11564645268655
2024-10-02 16:00:00+00:00,242.22740107807178
2024-10-02 18:00:00+00:00,234.77889717659212
2024-10-02 19:00:00+00:00,231.94529686090763
2024-10-03 13:00:00+00:00,313.04788228299293
2024-10-03 19:00:00+00:00,391.7722895941861
2024-10-04 13:00:00+00:00,391.7722895941861
2024-10-04 15:00:00+00:00,391.7722895941861
2024-10-04 16:00:00+00:00,391.7722895941861
2024-10-04 17:00:00+00:00,391.7722895941861
2024-10-04 18:00:00+00:00,391.7722895941861
2024-10-04 19:00:00+00:00,391.7722895941861
2024-10-07 13:00:00+00:00,391.7722895941861
2024-10-07 14:00:00+00:00,391.7722895941861
2024-10-07 16:00:00+00:00,391.7722895941861
2024-10-07 18:00:00+00:00,391.7722895941861
2024-10-08 13:00:00+00:00,391.7722895941861
2024-10-08 14:00:00+00:00,391.7722895941861
2024-10-08 15:00:00+00:00,391.7722895941861
2024-10-08 16:00:00+00:00,391.7722895941861
2024-10-08 17:00:00+00:00,391.7722895941861
2024-10-09 13:00:00+00:00,391.7722895941861
2024-10-09 14:00:00+00:00,391.7722895941861
2024-10-09 16:00:00+00:00,391.7722895941861
2024-10-10 13:00:00+00:00,391.7722895941861
2024-10-10 14:00:00+00:00,391.7722895941861
2024-10-10 15:00:00+00:00,391.7722895941861
2024-10-10 16:00:00+00:00,391.7722895941861
2024-10-11 13:00:00+00:00,391.7722895941861
2024-10-11 17:00:00+00:00,391.7722895941861
2024-10-14 13:00:00+00:00,391.7722895941861
2024-10-14 14:00:00+00:00,391.7722895941861
2024-10-14 15:00:00+00:00,391.7722895941861
2024-10-14 18:00:00+00:00,391.7722895941861
2024-10-14 19:00:00+00:00,391.7722895941861
2024-10-15 13:00:00+00:00,391.7722895941861
2024-10-15 14:00:00+00:00,391.7722895941861
2024-10-15 16:00:00+00:00,391.7722895941861
2024-10-15 17:00:00+00:00,391.7722895941861
2024-10-15 18:00:00+00:00,391.7722895941861
2024-10-16 13:00:00+00:00,391.7722895941861
2024-10-16 14:00:00+00:00,391.7722895941861
2024-10-16 15:00:00+00:00,391.7722895941861
2024-10-16 17:00:00+00:00,391.7722895941861
2024-10-16 19:00:00+00:00,391.7722895941861
2024-10-17 14:00:00+00:00,391.7722895941861
2024-10-17 17:00:00+00:00,391.7722895941861
2024-10-17 19:00:00+00:00,391.7722895941861
2024-10-18 13:00:00+00:00,391.7722895941861
2024-10-18 14:00:00+00:00,391.7722895941861
2024-10-18 15:00:00+00:00,391.7722895941861
2024-10-18 16:00:00+00:00,391.7722895941861
2024-10-18 18:00:00+00:00,391.7722895941861
2024-10-18 19:00:00+00:00,391.7722895941861
2024-10-21 14:00:00+00:00,391.7722895941861
2024-10-21 15:00:00+00:00,391.7722895941861
2024-10-21 16:00:00+00:00,391.7722895941861
2024-10-21 17:00:00+00:00,391.7722895941861
2024-10-21 18:00:00+00:00,391.7722895941861
2024-10-21 19:00:00+00:00,391.7722895941861
2024-10-22 13:00:00+00:00,391.7722895941861
2024-10-22 14:00:00+00:00,391.7722895941861
2024-10-22 16:00:00+00:00,391.7722895941861
2024-10-22 17:00:00+00:00,391.7722895941861
2024-10-22 18:00:00+00:00,391.7722895941861
2024-10-22 19:00:00+00:00,391.7722895941861
2024-10-23 13:00:00+00:00,391.7722895941861
2024-10-23 14:00:00+00:00,391.7722895941861
2024-10-23 15:00:00+00:00,391.7722895941861
2024-10-23 16:00:00+00:00,391.7722895941861
2024-10-23 17:00:00+00:00,391.7722895941861
2024-10-23 18:00:00+00:00,391.7722895941861
2024-10-23 19:00:00+00:00,391.7722895941861
2024-10-24 13:00:00+00:00,391.7722895941861
2024-10-24 14:00:00+00:00,391.7722895941861
2024-10-24 15:00:00+00:00,391.7722895941861
2024-10-24 16:00:00+00:00,391.7722895941861
2024-10-24 17:00:00+00:00,391.7722895941861
2024-10-24 18:00:00+00:00,391.7722895941861
2024-10-25 13:00:00+00:00,391.7722895941861
2024-10-25 15:00:00+00:00,391.7722895941861
2024-10-25 16:00:00+00:00,391.7722895941861
2024-10-25 19:00:00+00:00,391.7722895941861
2024-10-28 13:00:00+00:00,391.7722895941861
2024-10-28 14:00:00+00:00,391.7722895941861
2024-10-28 15:00:00+00:00,391.7722895941861
2024-10-28 16:00:00+00:00,391.7722895941861
2024-10-28 17:00:00+00:00,391.7722895941861
2024-10-28 18:00:00+00:00,391.7722895941861
2024-10-28 19:00:00+00:00,391.7722895941861
2024-10-29 13:00:00+00:00,391.7722895941861
2024-10-29 14:00:00+00:00,391.7722895941861
2024-10-29 15:00:00+00:00,391.7722895941861
2024-10-29 16:00:00+00:00,391.7722895941861
2024-10-29 17:00:00+00:00,391.7722895941861
2024-10-29 18:00:00+00:00,391.7722895941861
2024-10-29 19:00:00+00:00,391.7722895941861
2024-10-30 13:00:00+00:00,391.7722895941861
2024-10-30 14:00:00+00:00,391.7722895941861
2024-10-30 15:00:00+00:00,391.7722895941861
2024-10-30 16:00:00+00:00,391.7722895941861
2024-10-30 17:00:00+00:00,391.7722895941861
2024-10-30 18:00:00+00:00,391.7722895941861
2024-10-30 19:00:00+00:00,391.7722895941861
2024-10-31 13:00:00+00:00,391.7722895941861
2024-10-31 15:00:00+00:00,391.7722895941861
2024-10-31 18:00:00+00:00,391.7722895941861
2024-10-31 19:00:00+00:00,391.7722895941861
2024-11-01 13:00:00+00:00,391.7722895941861
2024-11-01 15:00:00+00:00,391.7722895941861
2024-11-01 17:00:00+00:00,391.7722895941861
2024-11-01 18:00:00+00:00,391.7722895941861
2024-11-01 19:00:00+00:00,391.7722895941861
2024-11-04 14:00:00+00:00,391.7722895941861
2024-11-04 16:00:00+00:00,391.7722895941861
2024-11-04 18:00:00+00:00,391.7722895941861
2024-11-04 19:00:00+00:00,391.7722895941861
2024-11-04 20:00:00+00:00,391.7722895941861
2024-11-05 14:00:00+00:00,391.7722895941861
2024-11-05 15:00:00+00:00,391.7722895941861
2024-11-05 16:00:00+00:00,391.7722895941861
2024-11-05 18:00:00+00:00,391.7722895941861
2024-11-05 19:00:00+00:00,391.7722895941861
2024-11-05 20:00:00+00:00,391.7722895941861
2024-11-06 14:00:00+00:00,391.7722895941861
2024-11-06 15:00:00+00:00,391.7722895941861
2024-11-06 16:00:00+00:00,391.7722895941861
2024-11-06 17:00:00+00:00,391.7722895941861
2024-11-06 19:00:00+00:00,391.7722895941861
2024-11-06 20:00:00+00:00,391.7722895941861
2024-11-07 14:00:00+00:00,391.7722895941861
2024-11-07 15:00:00+00:00,391.7722895941861
2024-11-07 17:00:00+00:00,391.7722895941861
2024-11-07 18:00:00+00:00,391.7722895941861
2024-11-07 19:00:00+00:00,391.7722895941861
2024-11-08 14:00:00+00:00,391.7722895941861
2024-11-08 15:00:00+00:00,391.7722895941861
2024-11-08 16:00:00+00:00,391.7722895941861
2024-11-08 17:00:00+00:00,391.7722895941861
2024-11-08 18:00:00+00:00,391.7722895941861
2024-11-08 19:00:00+00:00,391.7722895941861
2024-11-08 20:00:00+00:00,391.7722895941861
2024-11-11 14:00:00+00:00,391.7722895941861
2024-11-11 15:00:00+00:00,391.7722895941861
2024-11-11 18:00:00+00:00,391.7722895941861
2024-11-11 19:00:00+00:00,391.7722895941861
2024-11-11 20:00:00+00:00,391.7722895941861
2024-11-12 14:00:00+00:00,391.7722895941861
2024-11-12 15:00:00+00:00,391.7722895941861
2024-11-12 16:00:00+00:00,391.7722895941861
2024-11-12 17:00:00+00:00,391.7722895941861
2024-11-12 18:00:00+00:00,391.7722895941861
2024-11-12 19:00:00+00:00,391.7722895941861
2024-11-12 20:00:00+00:00,391.7722895941861
2024-11-13 14:00:00+00:00,260.5005274859818
2024-11-13 15:00:00+00:00,336.9238400407804
2024-11-13 17:00:00+00:00,301.8229215037098
2024-11-13 18:00:00+00:00,304.5399150677037
2024-11-13 19:00:00+00:00,334.4341302075102
2024-11-13 20:00:00+00:00,366.8119402763114
2024-11-14 15:00:00+00:00,428.26977814393854
2024-11-14 16:00:00+00:00,425.6541733978446
2024-11-14 17:00:00+00:00,503.66316679274865
2024-11-14 18:00:00+00:00,501.3101432662799
2024-11-14 19:00:00+00:00,514.6044059149049
2024-11-14 20:00:00+00:00,513.3915341740267
2024-11-15 14:00:00+00:00,533.7737857392111
2024-11-15 15:00:00+00:00,488.90530582118424
2024-11-15 16:00:00+00:00,471.3748134543488
2024-11-15 17:00:00+00:00,460.50572387453684
2024-11-15 18:00:00+00:00,445.09966234519004
2024-11-15 19:00:00+00:00,419.2155362209733
2024-11-15 20:00:00+00:00,420.432100059208
2024-11-18 14:00:00+00:00,545.0518007443587
2024-11-18 15:00:00+00:00,476.8697559053224
2024-11-18 17:00:00+00:00,494.3305422957372
2024-11-18 18:00:00+00:00,472.62401520115634
2024-11-18 19:00:00+00:00,421.6174032255914
2024-11-18 20:00:00+00:00,462.7322718275991
2024-11-19 14:00:00+00:00,282.40557040721643
2024-11-19 15:00:00+00:00,287.143765319629
2024-11-19 16:00:00+00:00,290.7163675226122
2024-11-19 17:00:00+00:00,306.597672309076
2024-11-19 18:00:00+00:00,295.86830122259596
2024-11-19 19:00:00+00:00,262.6002958669511
2024-11-19 20:00:00+00:00,263.6770733323853
2024-11-20 14:00:00+00:00,217.86357983459806
2024-11-20 15:00:00+00:00,180.32356648914634
2024-11-20 16:00:00+00:00,170.17915695226475
2024-11-20 17:00:00+00:00,176.50102610346187
2024-11-20 18:00:00+00:00,176.4556486908317
2024-11-20 19:00:00+00:00,192.61841794611112
2024-11-20 20:00:00+00:00,207.06047436163732
2024-11-21 14:00:00+00:00,237.94251993197958
2024-11-21 15:00:00+00:00,254.72438703986614
2024-11-21 16:00:00+00:00,259.138105416635
2024-11-21 17:00:00+00:00,285.75400873668514
2024-11-21 18:00:00+00:00,274.69909386362144
2024-11-21 19:00:00+00:00,280.89400444596055
2024-11-21 20:00:00+00:00,305.3018421982291
2024-11-22 14:00:00+00:00,339.0971433910487
2024-11-22 15:00:00+00:00,296.26439554161834
2024-11-22 16:00:00+00:00,299.98366677041173
2024-11-22 18:00:00+00:00,280.7013073630927
2024-11-22 19:00:00+00:00,291.1855455836896
2024-11-25 14:00:00+00:00,414.6143000760443
2024-11-25 15:00:00+00:00,465.1818311284648
2024-11-25 16:00:00+00:00,447.60452316462806
2024-11-25 17:00:00+00:00,439.3033366828663
2024-11-25 18:00:00+00:00,426.218615838508
2024-11-25 19:00:00+00:00,445.50240193759623
2024-11-25 20:00:00+00:00,468.38251761407975
2024-11-26 14:00:00+00:00,366.2477347816697
2024-11-26 15:00:00+00:00,347.1882751790498
2024-11-26 16:00:00+00:00,357.9809429535093
2024-11-26 17:00:00+00:00,369.81927903463276
2024-11-26 18:00:00+00:00,399.8303588840066
2024-11-26 19:00:00+00:00,387.45348421308347
2024-11-26 20:00:00+00:00,394.6899753989188
2024-11-27 14:00:00+00:00,428.1249985297401
2024-11-27 15:00:00+00:00,430.973992644437
2024-11-27 16:00:00+00:00,437.60221471636874
2024-11-27 17:00:00+00:00,415.89730238294936
2024-11-27 18:00:00+00:00,390.4291804518911
2024-11-27 19:00:00+00:00,374.21764526333146
2024-11-27 20:00:00+00:00,373.57608090630777
2024-11-29 14:00:00+00:00,397.28756366494486
2024-11-29 15:00:00+00:00,397.55784125675035
2024-11-29 16:00:00+00:00,442.81296631490557
2024-12-02 14:00:00+00:00,398.1103339250321
2024-12-02 15:00:00+00:00,422.44677107176227
2024-12-02 17:00:00+00:00,422.966782506712
2024-12-02 18:00:00+00:00,417.3890582625562
2024-12-02 19:00:00+00:00,437.407853562104
2024-12-02 20:00:00+00:00,449.90007955942554
2024-12-03 14:00:00+00:00,436.6693403336794
2024-12-03 15:00:00+00:00,436.8801331123401
2024-12-03 16:00:00+00:00,476.8611588664539
2024-12-03 17:00:00+00:00,511.0344320678495
2024-12-03 18:00:00+00:00,492.83734754013864
2024-12-03 19:00:00+00:00,517.8001874590083
2024-12-03 20:00:00+00:00,516.187980528995
2024-12-04 14:00:00+00:00,557.7314056182367
2024-12-04 15:00:00+00:00,654.1887434328224
2024-12-04 16:00:00+00:00,690.8230643199336
2024-12-04 17:00:00+00:00,690.8230643199336
2024-12-04 18:00:00+00:00,690.8230643199336
2024-12-04 19:00:00+00:00,690.8230643199336
2024-12-05 14:00:00+00:00,690.8230643199336
2024-12-05 15:00:00+00:00,690.8230643199336
2024-12-05 16:00:00+00:00,690.8230643199336
2024-12-05 17:00:00+00:00,690.8230643199336
2024-12-05 18:00:00+00:00,690.8230643199336
2024-12-05 19:00:00+00:00,690.8230643199336
2024-12-05 20:00:00+00:00,690.8230643199336
2024-12-06 14:00:00+00:00,690.8230643199336
2024-12-06 15:00:00+00:00,690.8230643199336
2024-12-06 16:00:00+00:00,690.8230643199336
2024-12-06 17:00:00+00:00,690.8230643199336
2024-12-06 18:00:00+00:00,690.8230643199336
2024-12-06 20:00:00+00:00,690.8230643199336
2024-12-09 14:00:00+00:00,690.8230643199336
2024-12-09 15:00:00+00:00,690.8230643199336
2024-12-09 16:00:00+00:00,690.8230643199336
2024-12-09 17:00:00+00:00,690.8230643199336
2024-12-09 19:00:00+00:00,690.8230643199336
2024-12-09 20:00:00+00:00,690.8230643199336
2024-12-10 14:00:00+00:00,690.8230643199336
2024-12-10 15:00:00+00:00,690.8230643199336
2024-12-10 16:00:00+00:00,690.8230643199336
2024-12-10 18:00:00+00:00,690.8230643199336
2024-12-10 19:00:00+00:00,690.8230643199336
2024-12-11 14:00:00+00:00,690.8230643199336
2024-12-11 15:00:00+00:00,690.8230643199336
2024-12-11 16:00:00+00:00,690.8230643199336
2024-12-11 17:00:00+00:00,690.8230643199336
2024-12-11 18:00:00+00:00,690.8230643199336
2024-12-11 19:00:00+00:00,690.8230643199336
2024-12-11 20:00:00+00:00,690.8230643199336
2024-12-12 14:00:00+00:00,690.8230643199336
2024-12-12 15:00:00+00:00,690.8230643199336
2024-12-12 16:00:00+00:00,690.8230643199336
2024-12-12 18:00:00+00:00,690.8230643199336
2024-12-12 19:00:00+00:00,690.8230643199336
2024-12-12 20:00:00+00:00,690.8230643199336
2024-12-13 16:00:00+00:00,690.8230643199336
2024-12-13 17:00:00+00:00,690.8230643199336
2024-12-13 19:00:00+00:00,690.8230643199336
2024-12-13 20:00:00+00:00,690.8230643199336
2024-12-16 14:00:00+00:00,690.8230643199336
2024-12-16 15:00:00+00:00,690.8230643199336
2024-12-16 16:00:00+00:00,690.8230643199336
2024-12-16 17:00:00+00:00,690.8230643199336
2024-12-16 18:00:00+00:00,690.8230643199336
2024-12-16 19:00:00+00:00,690.8230643199336
2024-12-16 20:00:00+00:00,690.8230643199336
2024-12-17 14:00:00+00:00,690.8230643199336
2024-12-17 15:00:00+00:00,690.8230643199336
2024-12-17 16:00:00+00:00,690.8230643199336
2024-12-17 17:00:00+00:00,690.8230643199336
2024-12-17 20:00:00+00:00,690.8230643199336
2024-12-18 14:00:00+00:00,690.8230643199336
2024-12-18 15:00:00+00:00,690.8230643199336
2024-12-18 16:00:00+00:00,690.8230643199336
2024-12-18 18:00:00+00:00,690.8230643199336
2024-12-18 19:00:00+00:00,690.8230643199336
2024-12-18 20:00:00+00:00,690.8230643199336
2024-12-19 14:00:00+00:00,690.8230643199336
2024-12-19 15:00:00+00:00,690.8230643199336
2024-12-19 16:00:00+00:00,690.8230643199336
2024-12-19 17:00:00+00:00,690.8230643199336
2024-12-19 18:00:00+00:00,690.8230643199336
2024-12-19 19:00:00+00:00,690.8230643199336
2024-12-19 20:00:00+00:00,690.8230643199336
2024-12-20 14:00:00+00:00,690.8230643199336
2024-12-20 15:00:00+00:00,690.8230643199336
2024-12-20 16:00:00+00:00,690.8230643199336
2024-12-20 17:00:00+00:00,690.8230643199336
2024-12-20 18:00:00+00:00,690.8230643199336
2024-12-20 19:00:00+00:00,690.8230643199336
2024-12-20 20:00:00+00:00,690.8230643199336
2024-12-23 14:00:00+00:00,690.8230643199336
2024-12-23 15:00:00+00:00,690.8230643199336
2024-12-23 16:00:00+00:00,690.8230643199336
2024-12-23 17:00:00+00:00,690.8230643199336
2024-12-23 18:00:00+00:00,690.8230643199336
2024-12-23 19:00:00+00:00,690.8230643199336
2024-12-23 20:00:00+00:00,690.8230643199336
2024-12-24 14:00:00+00:00,690.8230643199336
2024-12-24 15:00:00+00:00,690.8230643199336
2024-12-24 16:00:00+00:00,690.8230643199336
2024-12-26 14:00:00+00:00,690.8230643199336
2024-12-26 15:00:00+00:00,690.8230643199336
2024-12-26 16:00:00+00:00,690.8230643199336
2024-12-26 17:00:00+00:00,690.8230643199336
2024-12-26 18:00:00+00:00,690.8230643199336
2024-12-26 19:00:00+00:00,690.8230643199336
2024-12-26 20:00:00+00:00,690.8230643199336
2024-12-27 14:00:00+00:00,690.8230643199336
2024-12-27 15:00:00+00:00,690.8230643199336
2024-12-27 16:00:00+00:00,690.8230643199336
2024-12-27 17:00:00+00:00,690.8230643199336
2024-12-27 18:00:00+00:00,690.8230643199336
2024-12-27 19:00:00+00:00,690.8230643199336
2024-12-27 20:00:00+00:00,690.8230643199336
2024-12-30 14:00:00+00:00,690.8230643199336
2024-12-30 15:00:00+00:00,690.8230643199336
2024-12-30 16:00:00+00:00,690.8230643199336
2024-12-30 17:00:00+00:00,690.8230643199336
2024-12-30 18:00:00+00:00,690.8230643199336
2024-12-30 19:00:00+00:00,690.8230643199336
2024-12-30 20:00:00+00:00,690.8230643199336
2024-12-31 14:00:00+00:00,690.8230643199336
2024-12-31 15:00:00+00:00,690.8230643199336
2024-12-31 16:00:00+00:00,690.8230643199336
2024-12-31 17:00:00+00:00,690.8230643199336
2024-12-31 18:00:00+00:00,690.8230643199336
2024-12-31 19:00:00+00:00,690.8230643199336
2025-01-02 14:00:00+00:00,690.8230643199336
2025-01-02 15:00:00+00:00,690.8230643199336
2025-01-02 16:00:00+00:00,690.8230643199336
2025-01-02 17:00:00+00:00,690.8230643199336
2025-01-02 18:00:00+00:00,690.8230643199336
2025-01-02 19:00:00+00:00,690.8230643199336
2025-01-02 20:00:00+00:00,690.8230643199336
2025-01-03 14:00:00+00:00,690.8230643199336
2025-01-03 15:00:00+00:00,690.8230643199336
2025-01-03 16:00:00+00:00,690.8230643199336
2025-01-03 17:00:00+00:00,690.8230643199336
2025-01-03 18:00:00+00:00,690.8230643199336
2025-01-03 19:00:00+00:00,690.8230643199336
2025-01-03 20:00:00+00:00,690.8230643199336
2025-01-06 14:00:00+00:00,690.8230643199336
2025-01-06 15:00:00+00:00,690.8230643199336
2025-01-06 18:00:00+00:00,690.8230643199336
2025-01-06 19:00:00+00:00,690.8230643199336
2025-01-06 20:00:00+00:00,690.8230643199336
2025-01-07 14:00:00+00:00,690.8230643199336
2025-01-07 15:00:00+00:00,690.8230643199336
2025-01-07 16:00:00+00:00,690.8230643199336
2025-01-07 17:00:00+00:00,690.8230643199336
2025-01-07 18:00:00+00:00,690.8230643199336
2025-01-07 19:00:00+00:00,690.8230643199336
2025-01-07 20:00:00+00:00,690.8230643199336
2025-01-08 14:00:00+00:00,690.8230643199336
2025-01-08 15:00:00+00:00,690.8230643199336
2025-01-08 16:00:00+00:00,690.8230643199336
2025-01-08 17:00:00+00:00,690.8230643199336
2025-01-08 18:00:00+00:00,690.8230643199336
2025-01-08 19:00:00+00:00,690.8230643199336
2025-01-08 20:00:00+00:00,690.8230643199336
2025-01-10 14:00:00+00:00,690.8230643199336
2025-01-10 15:00:00+00:00,690.8230643199336
2025-01-10 16:00:00+00:00,690.8230643199336
2025-01-10 17:00:00+00:00,690.8230643199336
2025-01-10 19:00:00+00:00,690.8230643199336
2025-01-10 20:00:00+00:00,690.8230643199336
2025-01-13 14:00:00+00:00,690.8230643199336
2025-01-13 15:00:00+00:00,690.8230643199336
2025-01-13 16:00:00+00:00,690.8230643199336
2025-01-13 17:00:00+00:00,690.8230643199336
2025-01-13 18:00:00+00:00,690.8230643199336
2025-01-13 19:00:00+00:00,690.8230643199336
2025-01-13 20:00:00+00:00,690.8230643199336
2025-01-14 14:00:00+00:00,690.8230643199336
2025-01-14 15:00:00+00:00,690.8230643199336
2025-01-14 16:00:00+00:00,690.8230643199336
2025-01-14 17:00:00+00:00,690.8230643199336
2025-01-14 18:00:00+00:00,690.8230643199336
2025-01-14 19:00:00+00:00,690.8230643199336
2025-01-14 20:00:00+00:00,690.8230643199336
2025-01-15 14:00:00+00:00,690.8230643199336
2025-01-15 15:00:00+00:00,690.8230643199336
2025-01-15 16:00:00+00:00,690.8230643199336
2025-01-15 18:00:00+00:00,690.8230643199336
2025-01-15 19:00:00+00:00,690.8230643199336
2025-01-15 20:00:00+00:00,690.8230643199336
2025-01-16 14:00:00+00:00,690.8230643199336
2025-01-16 15:00:00+00:00,690.8230643199336
2025-01-16 16:00:00+00:00,690.8230643199336
2025-01-16 17:00:00+00:00,690.8230643199336
2025-01-16 19:00:00+00:00,690.8230643199336
2025-01-16 20:00:00+00:00,690.8230643199336
2025-01-17 14:00:00+00:00,690.8230643199336
2025-01-17 15:00:00+00:00,690.8230643199336
2025-01-17 16:00:00+00:00,690.8230643199336
2025-01-17 18:00:00+00:00,690.8230643199336
2025-01-17 19:00:00+00:00,690.8230643199336
2025-01-17 20:00:00+00:00,690.8230643199336
2025-01-21 14:00:00+00:00,690.8230643199336
2025-01-21 15:00:00+00:00,690.8230643199336
2025-01-21 16:00:00+00:00,690.8230643199336
2025-01-21 17:00:00+00:00,690.8230643199336
2025-01-21 19:00:00+00:00,690.8230643199336
2025-01-21 20:00:00+00:00,690.8230643199336
2025-01-22 14:00:00+00:00,690.8230643199336
2025-01-22 16:00:00+00:00,690.8230643199336
2025-01-22 17:00:00+00:00,690.8230643199336
2025-01-22 19:00:00+00:00,690.8230643199336
2025-01-22 20:00:00+00:00,690.8230643199336
2025-01-23 14:00:00+00:00,690.8230643199336
2025-01-23 15:00:00+00:00,690.8230643199336
2025-01-23 16:00:00+00:00,690.8230643199336
2025-01-23 17:00:00+00:00,690.8230643199336
2025-01-23 18:00:00+00:00,690.8230643199336
2025-01-23 19:00:00+00:00,690.8230643199336
2025-01-23 20:00:00+00:00,690.8230643199336
2025-01-24 14:00:00+00:00,690.8230643199336
2025-01-24 15:00:00+00:00,690.8230643199336
2025-01-24 16:00:00+00:00,690.8230643199336
2025-01-24 17:00:00+00:00,690.8230643199336
2025-01-24 18:00:00+00:00,690.8230643199336
2025-01-24 19:00:00+00:00,690.8230643199336
2025-01-24 20:00:00+00:00,690.8230643199336
2025-01-27 14:00:00+00:00,690.8230643199336
2025-01-27 15:00:00+00:00,690.8230643199336
2025-01-27 16:00:00+00:00,690.8230643199336
2025-01-27 17:00:00+00:00,690.8230643199336
2025-01-27 18:00:00+00:00,690.8230643199336
2025-01-27 19:00:00+00:00,690.8230643199336
2025-01-27 20:00:00+00:00,690.8230643199336
2025-01-28 14:00:00+00:00,690.8230643199336
2025-01-28 15:00:00+00:00,690.8230643199336
2025-01-28 16:00:00+00:00,690.8230643199336
2025-01-28 17:00:00+00:00,690.8230643199336
2025-01-28 18:00:00+00:00,690.8230643199336
2025-01-28 19:00:00+00:00,690.8230643199336
2025-01-29 14:00:00+00:00,690.8230643199336
2025-01-29 15:00:00+00:00,690.8230643199336
2025-01-29 16:00:00+00:00,690.8230643199336
2025-01-29 17:00:00+00:00,690.8230643199336
2025-01-29 18:00:00+00:00,690.8230643199336
2025-01-29 19:00:00+00:00,690.8230643199336
2025-01-29 20:00:00+00:00,690.8230643199336
2025-01-30 14:00:00+00:00,690.8230643199336
2025-01-30 15:00:00+00:00,690.8230643199336
2025-01-30 16:00:00+00:00,690.8230643199336
2025-01-30 18:00:00+00:00,690.8230643199336
2025-01-30 19:00:00+00:00,690.8230643199336
2025-01-30 20:00:00+00:00,690.8230643199336
2025-01-31 14:00:00+00:00,690.8230643199336
2025-01-31 15:00:00+00:00,690.8230643199336
2025-01-31 16:00:00+00:00,690.8230643199336
2025-01-31 17:00:00+00:00,690.8230643199336
2025-01-31 18:00:00+00:00,690.8230643199336
2025-01-31 19:00:00+00:00,690.8230643199336
2025-01-31 20:00:00+00:00,690.8230643199336
2025-02-03 14:00:00+00:00,690.8230643199336
2025-02-03 15:00:00+00:00,690.8230643199336
2025-02-03 16:00:00+00:00,690.8230643199336
2025-02-03 17:00:00+00:00,690.8230643199336
2025-02-03 18:00:00+00:00,690.8230643199336
2025-02-03 19:00:00+00:00,690.8230643199336
2025-02-03 20:00:00+00:00,690.8230643199336
2025-02-04 16:00:00+00:00,690.8230643199336
2025-02-04 18:00:00+00:00,690.8230643199336
2025-02-04 20:00:00+00:00,690.8230643199336
2025-02-05 14:00:00+00:00,690.8230643199336
2025-02-05 15:00:00+00:00,690.8230643199336
2025-02-05 16:00:00+00:00,690.8230643199336
2025-02-05 17:00:00+00:00,690.8230643199336
2025-02-05 19:00:00+00:00,690.8230643199336
2025-02-05 20:00:00+00:00,690.8230643199336
2025-02-06 14:00:00+00:00,690.8230643199336
2025-02-06 15:00:00+00:00,690.8230643199336
2025-02-06 17:00:00+00:00,690.8230643199336
2025-02-06 18:00:00+00:00,690.8230643199336
2025-02-06 19:00:00+00:00,690.8230643199336
2025-02-06 20:00:00+00:00,690.8230643199336
2025-02-07 14:00:00+00:00,690.8230643199336
2025-02-07 15:00:00+00:00,690.8230643199336
2025-02-07 16:00:00+00:00,690.8230643199336
2025-02-07 17:00:00+00:00,690.8230643199336
2025-02-07 19:00:00+00:00,690.8230643199336
2025-02-07 20:00:00+00:00,690.8230643199336
2025-02-10 14:00:00+00:00,690.8230643199336
2025-02-10 15:00:00+00:00,690.8230643199336
2025-02-10 19:00:00+00:00,690.8230643199336
2025-02-10 20:00:00+00:00,690.8230643199336
2025-02-11 14:00:00+00:00,690.8230643199336
2025-02-11 16:00:00+00:00,690.8230643199336
2025-02-11 17:00:00+00:00,690.8230643199336
2025-02-11 19:00:00+00:00,690.8230643199336
2025-02-11 20:00:00+00:00,690.8230643199336
2025-02-12 14:00:00+00:00,690.8230643199336
2025-02-12 15:00:00+00:00,690.8230643199336
2025-02-12 16:00:00+00:00,690.8230643199336
2025-02-12 17:00:00+00:00,690.8230643199336
2025-02-12 18:00:00+00:00,690.8230643199336
2025-02-12 19:00:00+00:00,690.8230643199336
2025-02-12 20:00:00+00:00,690.8230643199336
2025-02-13 14:00:00+00:00,690.8230643199336
2025-02-13 15:00:00+00:00,690.8230643199336
2025-02-13 16:00:00+00:00,690.8230643199336
2025-02-13 17:00:00+00:00,690.8230643199336
2025-02-13 18:00:00+00:00,690.8230643199336
2025-02-13 19:00:00+00:00,690.8230643199336
2025-02-13 20:00:00+00:00,690.8230643199336
2025-02-14 14:00:00+00:00,690.8230643199336
2025-02-14 15:00:00+00:00,690.8230643199336
2025-02-14 16:00:00+00:00,690.8230643199336
2025-02-14 17:00:00+00:00,690.8230643199336
2025-02-14 18:00:00+00:00,690.8230643199336
2025-02-14 19:00:00+00:00,690.8230643199336
2025-02-14 20:00:00+00:00,690.8230643199336
2025-02-18 14:00:00+00:00,690.8230643199336
2025-02-18 15:00:00+00:00,690.8230643199336
2025-02-18 16:00:00+00:00,690.8230643199336
2025-02-18 17:00:00+00:00,690.8230643199336
2025-02-18 18:00:00+00:00,690.8230643199336
2025-02-18 19:00:00+00:00,690.8230643199336
2025-02-18 20:00:00+00:00,690.8230643199336
2025-02-19 14:00:00+00:00,690.8230643199336
2025-02-19 15:00:00+00:00,690.8230643199336
2025-02-19 16:00:00+00:00,690.8230643199336
2025-02-19 17:00:00+00:00,690.8230643199336
2025-02-19 18:00:00+00:00,690.8230643199336
2025-02-19 19:00:00+00:00,690.8230643199336
2025-02-19 20:00:00+00:00,690.8230643199336
2025-02-20 14:00:00+00:00,690.8230643199336
2025-02-20 15:00:00+00:00,690.8230643199336
2025-02-20 16:00:00+00:00,690.8230643199336
2025-02-20 17:00:00+00:00,690.8230643199336
2025-02-20 18:00:00+00:00,690.8230643199336
2025-02-20 19:00:00+00:00,690.8230643199336
2025-02-21 14:00:00+00:00,690.8230643199336
2025-02-21 15:00:00+00:00,690.8230643199336
2025-02-21 16:00:00+00:00,690.8230643199336
2025-02-21 17:00:00+00:00,690.8230643199336
2025-02-21 18:00:00+00:00,690.8230643199336
2025-02-21 19:00:00+00:00,690.8230643199336
2025-02-21 20:00:00+00:00,690.8230643199336
2025-02-24 14:00:00+00:00,690.8230643199336
2025-02-24 15:00:00+00:00,690.8230643199336
2025-02-24 16:00:00+00:00,690.8230643199336
2025-02-24 17:00:00+00:00,690.8230643199336
2025-02-24 18:00:00+00:00,690.8230643199336
2025-02-24 19:00:00+00:00,690.8230643199336
2025-02-24 20:00:00+00:00,690.8230643199336
2025-02-25 14:00:00+00:00,690.8230643199336
2025-02-25 15:00:00+00:00,690.8230643199336
2025-02-25 16:00:00+00:00,690.8230643199336
2025-02-25 17:00:00+00:00,690.8230643199336
2025-02-25 18:00:00+00:00,690.8230643199336
2025-02-25 19:00:00+00:00,690.8230643199336
2025-02-25 20:00:00+00:00,690.8230643199336
2025-02-26 14:00:00+00:00,690.8230643199336
2025-02-26 15:00:00+00:00,690.8230643199336
2025-02-26 16:00:00+00:00,690.8230643199336
2025-02-26 17:00:00+00:00,690.8230643199336
2025-02-26 18:00:00+00:00,690.8230643199336
2025-02-26 19:00:00+00:00,690.8230643199336
2025-02-26 20:00:00+00:00,690.8230643199336
2025-02-27 14:00:00+00:00,690.8230643199336
2025-02-27 15:00:00+00:00,690.8230643199336
2025-02-27 16:00:00+00:00,690.8230643199336
2025-02-27 17:00:00+00:00,690.8230643199336
2025-02-27 18:00:00+00:00,690.8230643199336
2025-02-27 19:00:00+00:00,690.8230643199336
2025-02-27 20:00:00+00:00,690.8230643199336
2025-02-28 14:00:00+00:00,690.8230643199336
2025-02-28 15:00:00+00:00,690.8230643199336
2025-02-28 16:00:00+00:00,690.8230643199336
2025-02-28 17:00:00+00:00,690.8230643199336
2025-02-28 18:00:00+00:00,690.8230643199336
2025-02-28 19:00:00+00:00,690.8230643199336
2025-02-28 20:00:00+00:00,690.8230643199336
2025-03-03 14:00:00+00:00,690.8230643199336
2025-03-03 15:00:00+00:00,690.8230643199336
2025-03-03 16:00:00+00:00,690.8230643199336
2025-03-03 17:00:00+00:00,690.8230643199336
2025-03-03 18:00:00+00:00,690.8230643199336
2025-03-03 19:00:00+00:00,690.8230643199336
2025-03-03 20:00:00+00:00,690.8230643199336
2025-03-04 14:00:00+00:00,690.8230643199336
2025-03-04 15:00:00+00:00,690.8230643199336
2025-03-04 16:00:00+00:00,690.8230643199336
2025-03-04 17:00:00+00:00,690.8230643199336
2025-03-04 18:00:00+00:00,690.8230643199336
2025-03-04 19:00:00+00:00,690.8230643199336
2025-03-04 20:00:00+00:00,690.8230643199336
2025-03-05 14:00:00+00:00,690.8230643199336
2025-03-05 15:00:00+00:00,690.8230643199336
2025-03-05 16:00:00+00:00,690.8230643199336
2025-03-05 17:00:00+00:00,690.8230643199336
2025-03-05 18:00:00+00:00,690.8230643199336
2025-03-05 19:00:00+00:00,690.8230643199336
2025-03-05 20:00:00+00:00,690.8230643199336
2025-03-06 14:00:00+00:00,690.8230643199336
2025-03-06 15:00:00+00:00,690.8230643199336
2025-03-06 16:00:00+00:00,690.8230643199336
2025-03-06 17:00:00+00:00,690.8230643199336
2025-03-06 18:00:00+00:00,690.8230643199336
2025-03-06 19:00:00+00:00,690.8230643199336
2025-03-06 20:00:00+00:00,690.8230643199336
2025-03-07 14:00:00+00:00,690.8230643199336
2025-03-07 15:00:00+00:00,690.8230643199336
2025-03-07 17:00:00+00:00,690.8230643199336
2025-03-07 18:00:00+00:00,690.8230643199336
2025-03-07 19:00:00+00:00,690.8230643199336
2025-03-07 20:00:00+00:00,690.8230643199336
2025-03-10 13:00:00+00:00,690.8230643199336
2025-03-10 14:00:00+00:00,690.8230643199336
2025-03-10 15:00:00+00:00,690.8230643199336
2025-03-10 16:00:00+00:00,690.8230643199336
2025-03-10 17:00:00+00:00,690.8230643199336
2025-03-10 18:00:00+00:00,690.8230643199336
2025-03-10 19:00:00+00:00,690.8230643199336
2025-03-11 13:00:00+00:00,690.8230643199336
2025-03-11 14:00:00+00:00,690.8230643199336
2025-03-11 15:00:00+00:00,690.8230643199336
2025-03-11 16:00:00+00:00,690.8230643199336
2025-03-11 17:00:00+00:00,690.8230643199336
2025-03-11 18:00:00+00:00,690.8230643199336
2025-03-11 19:00:00+00:00,690.8230643199336
2025-03-12 13:00:00+00:00,690.8230643199336
2025-03-12 14:00:00+00:00,690.8230643199336
2025-03-12 15:00:00+00:00,690.8230643199336
2025-03-12 16:00:00+00:00,690.8230643199336
2025-03-12 17:00:00+00:00,690.8230643199336
2025-03-12 18:00:00+00:00,690.8230643199336
2025-03-12 19:00:00+00:00,690.8230643199336
2025-03-13 13:00:00+00:00,690.8230643199336
2025-03-13 14:00:00+00:00,690.8230643199336
2025-03-13 15:00:00+00:00,690.8230643199336
2025-03-13 17:00:00+00:00,690.8230643199336
2025-03-13 18:00:00+00:00,690.8230643199336
2025-03-13 19:00:00+00:00,690.8230643199336
2025-03-14 13:00:00+00:00,690.8230643199336
2025-03-14 14:00:00+00:00,690.8230643199336
2025-03-14 15:00:00+00:00,690.8230643199336
2025-03-14 16:00:00+00:00,690.8230643199336
2025-03-14 17:00:00+00:00,690.8230643199336
2025-03-14 18:00:00+00:00,690.8230643199336
2025-03-14 19:00:00+00:00,690.8230643199336
2025-03-17 13:00:00+00:00,690.8230643199336
2025-03-17 14:00:00+00:00,690.8230643199336
2025-03-17 15:00:00+00:00,690.8230643199336
2025-03-17 16:00:00+00:00,690.8230643199336
2025-03-17 17:00:00+00:00,690.8230643199336
2025-03-17 18:00:00+00:00,690.8230643199336
2025-03-17 19:00:00+00:00,690.8230643199336
2025-03-18 13:00:00+00:00,690.8230643199336
2025-03-18 14:00:00+00:00,690.8230643199336
2025-03-18 15:00:00+00:00,690.8230643199336
2025-03-18 16:00:00+00:00,690.8230643199336
2025-03-18 17:00:00+00:00,690.8230643199336
2025-03-18 18:00:00+00:00,690.8230643199336
2025-03-18 19:00:00+00:00,690.8230643199336
2025-03-19 13:00:00+00:00,690.8230643199336
2025-03-19 14:00:00+00:00,690.8230643199336
2025-03-19 15:00:00+00:00,690.8230643199336
2025-03-19 16:00:00+00:00,690.8230643199336
2025-03-19 17:00:00+00:00,690.8230643199336
2025-03-19 18:00:00+00:00,690.8230643199336
2025-03-19 19:00:00+00:00,690.8230643199336
2025-03-20 13:00:00+00:00,690.8230643199336
2025-03-20 14:00:00+00:00,690.8230643199336
2025-03-20 15:00:00+00:00,690.8230643199336
2025-03-20 16:00:00+00:00,690.8230643199336
2025-03-20 17:00:00+00:00,690.8230643199336
2025-03-20 18:00:00+00:00,690.8230643199336
2025-03-20 19:00:00+00:00,690.8230643199336
2025-03-21 13:00:00+00:00,690.8230643199336
2025-03-21 14:00:00+00:00,690.8230643199336
2025-03-21 15:00:00+00:00,690.8230643199336
2025-03-21 16:00:00+00:00,690.8230643199336
2025-03-21 17:00:00+00:00,690.8230643199336
2025-03-21 18:00:00+00:00,690.8230643199336
2025-03-21 19:00:00+00:00,690.8230643199336
2025-03-24 13:00:00+00:00,690.8230643199336
2025-03-24 14:00:00+00:00,690.8230643199336
2025-03-24 15:00:00+00:00,690.8230643199336
2025-03-24 16:00:00+00:00,690.8230643199336
2025-03-24 17:00:00+00:00,690.8230643199336
2025-03-24 18:00:00+00:00,690.8230643199336
2025-03-24 19:00:00+00:00,690.8230643199336
2025-03-25 13:00:00+00:00,690.8230643199336
2025-03-25 14:00:00+00:00,690.8230643199336
2025-03-25 15:00:00+00:00,690.8230643199336
2025-03-25 16:00:00+00:00,690.8230643199336
2025-03-25 17:00:00+00:00,690.8230643199336
2025-03-25 18:00:00+00:00,690.8230643199336
2025-03-25 19:00:00+00:00,690.8230643199336
2025-03-26 13:00:00+00:00,690.8230643199336
2025-03-26 14:00:00+00:00,690.8230643199336
2025-03-26 15:00:00+00:00,690.8230643199336
2025-03-26 16:00:00+00:00,690.8230643199336
2025-03-26 17:00:00+00:00,690.8230643199336
2025-03-26 18:00:00+00:00,690.8230643199336
2025-03-26 19:00:00+00:00,690.8230643199336
2025-03-27 13:00:00+00:00,690.8230643199336
2025-03-27 14:00:00+00:00,690.8230643199336
2025-03-27 15:00:00+00:00,690.8230643199336
2025-03-27 16:00:00+00:00,690.8230643199336
2025-03-27 17:00:00+00:00,690.8230643199336
2025-03-27 18:00:00+00:00,690.8230643199336
2025-03-27 19:00:00+00:00,690.8230643199336
2025-03-28 13:00:00+00:00,690.8230643199336
2025-03-28 14:00:00+00:00,690.8230643199336
2025-03-28 15:00:00+00:00,690.8230643199336
2025-03-28 16:00:00+00:00,690.8230643199336
2025-03-28 17:00:00+00:00,690.8230643199336
2025-03-28 18:00:00+00:00,690.8230643199336
2025-03-28 19:00:00+00:00,690.8230643199336
2025-03-31 13:00:00+00:00,690.8230643199336
2025-03-31 14:00:00+00:00,690.8230643199336
2025-03-31 15:00:00+00:00,690.8230643199336
2025-03-31 16:00:00+00:00,690.8230643199336
2025-03-31 17:00:00+00:00,690.8230643199336
2025-03-31 18:00:00+00:00,690.8230643199336
2025-03-31 19:00:00+00:00,690.8230643199336
2025-04-01 13:00:00+00:00,690.8230643199336
2025-04-01 14:00:00+00:00,690.8230643199336
2025-04-01 15:00:00+00:00,690.8230643199336
2025-04-01 16:00:00+00:00,690.8230643199336
2025-04-01 17:00:00+00:00,690.8230643199336
2025-04-01 18:00:00+00:00,690.8230643199336
2025-04-01 19:00:00+00:00,690.8230643199336
2025-04-02 13:00:00+00:00,690.8230643199336
2025-04-02 14:00:00+00:00,690.8230643199336
2025-04-02 16:00:00+00:00,690.8230643199336
2025-04-02 17:00:00+00:00,690.8230643199336
2025-04-02 18:00:00+00:00,690.8230643199336
2025-04-02 19:00:00+00:00,690.8230643199336
2025-04-03 13:00:00+00:00,690.8230643199336
2025-04-03 14:00:00+00:00,690.8230643199336
2025-04-03 15:00:00+00:00,690.8230643199336
2025-04-03 16:00:00+00:00,690.8230643199336
2025-04-03 17:00:00+00:00,690.8230643199336
2025-04-03 18:00:00+00:00,690.8230643199336
2025-04-03 19:00:00+00:00,690.8230643199336
2025-04-04 13:00:00+00:00,690.8230643199336
2025-04-04 14:00:00+00:00,690.8230643199336
2025-04-04 15:00:00+00:00,690.8230643199336
2025-04-04 16:00:00+00:00,690.8230643199336
2025-04-04 17:00:00+00:00,690.8230643199336
2025-04-04 18:00:00+00:00,690.8230643199336
2025-04-04 19:00:00+00:00,690.8230643199336
2025-04-07 13:00:00+00:00,487.18756690531205
2025-04-07 14:00:00+00:00,392.7162063553932
2025-04-07 15:00:00+00:00,484.17693630089525
2025-04-07 16:00:00+00:00,511.4775967227221
2025-04-07 17:00:00+00:00,532.6189264884396
2025-04-07 18:00:00+00:00,522.6237101153177
2025-04-07 19:00:00+00:00,544.6944002523608
2025-04-08 13:00:00+00:00,591.7933497969581
2025-04-08 14:00:00+00:00,616.5192540836501
2025-04-08 15:00:00+00:00,612.6297436082234
2025-04-08 16:00:00+00:00,540.5248923798533
2025-04-08 17:00:00+00:00,493.7255018152824
2025-04-08 18:00:00+00:00,444.5679558796965
2025-04-08 19:00:00+00:00,448.98217809978615
2025-04-09 13:00:00+00:00,537.8841191832325
2025-04-09 14:00:00+00:00,583.1730672928538
2025-04-09 15:00:00+00:00,578.9980903384662
2025-04-09 16:00:00+00:00,790.7959546098094
2025-04-09 17:00:00+00:00,828.1233098225604
2025-04-09 18:00:00+00:00,830.3771274866612
2025-04-09 19:00:00+00:00,908.3062849815349
2025-04-10 13:00:00+00:00,753.3707041741316
2025-04-10 14:00:00+00:00,696.8527451159582
2025-04-10 15:00:00+00:00,650.0928561612824
2025-04-10 16:00:00+00:00,709.0024615691475
2025-04-10 17:00:00+00:00,801.3429074755156
2025-04-10 18:00:00+00:00,811.8601276040173
2025-04-10 19:00:00+00:00,811.4547278824973
2025-04-11 13:00:00+00:00,771.5651572852936
2025-04-11 14:00:00+00:00,802.600192546786
2025-04-11 15:00:00+00:00,873.7404779694102
2025-04-11 16:00:00+00:00,881.1271819367257
2025-04-11 17:00:00+00:00,913.8760537861107
2025-04-11 18:00:00+00:00,900.0260772165728
2025-04-11 19:00:00+00:00,891.6626152962566
2025-04-14 13:00:00+00:00,913.089155448577
2025-04-14 14:00:00+00:00,908.1849310296107
2025-04-14 15:00:00+00:00,923.4262789200034
2025-04-14 16:00:00+00:00,907.4509300410749
2025-04-14 17:00:00+00:00,887.7263000041864
2025-04-14 18:00:00+00:00,930.7065203470953
2025-04-14 19:00:00+00:00,918.3358412287135
2025-04-15 13:00:00+00:00,888.8017788521154
2025-04-15 14:00:00+00:00,907.8074404503316
2025-04-15 15:00:00+00:00,926.7098817202716
2025-04-15 16:00:00+00:00,914.1196493256739
2025-04-15 17:00:00+00:00,911.4856785641372
2025-04-15 18:00:00+00:00,926.9621097303632
2025-04-15 19:00:00+00:00,918.7209173070822
2025-04-16 13:00:00+00:00,892.518152596794
2025-04-16 14:00:00+00:00,995.7103489049086
2025-04-16 15:00:00+00:00,995.7103489049086
2025-04-16 17:00:00+00:00,995.7103489049086
2025-04-16 18:00:00+00:00,995.7103489049086
2025-04-16 19:00:00+00:00,995.7103489049086
2025-04-17 13:00:00+00:00,995.7103489049086
2025-04-17 14:00:00+00:00,995.7103489049086
2025-04-17 15:00:00+00:00,995.7103489049086
2025-04-17 16:00:00+00:00,995.7103489049086
2025-04-17 17:00:00+00:00,995.7103489049086
2025-04-17 18:00:00+00:00,995.7103489049086
2025-04-17 19:00:00+00:00,995.7103489049086
2025-04-21 13:00:00+00:00,995.7103489049086
2025-04-21 14:00:00+00:00,995.7103489049086
2025-04-21 15:00:00+00:00,995.7103489049086
2025-04-21 16:00:00+00:00,995.7103489049086
2025-04-21 17:00:00+00:00,995.7103489049086
2025-04-21 18:00:00+00:00,995.7103489049086
2025-04-21 19:00:00+00:00,995.7103489049086
2025-04-22 13:00:00+00:00,995.7103489049086
2025-04-22 14:00:00+00:00,995.7103489049086
2025-04-22 15:00:00+00:00,995.7103489049086
2025-04-22 16:00:00+00:00,995.7103489049086
2025-04-22 17:00:00+00:00,995.7103489049086
2025-04-22 18:00:00+00:00,995.7103489049086
2025-04-22 19:00:00+00:00,995.7103489049086
2025-04-23 13:00:00+00:00,995.7103489049086
2025-04-23 14:00:00+00:00,995.7103489049086
2025-04-23 15:00:00+00:00,995.7103489049086
2025-04-23 16:00:00+00:00,995.7103489049086
2025-04-23 17:00:00+00:00,995.7103489049086
2025-04-23 18:00:00+00:00,995.7103489049086
2025-04-23 19:00:00+00:00,995.7103489049086
2025-04-24 13:00:00+00:00,995.7103489049086
2025-04-24 14:00:00+00:00,995.7103489049086
2025-04-24 16:00:00+00:00,995.7103489049086
2025-04-24 17:00:00+00:00,995.7103489049086
2025-04-24 18:00:00+00:00,995.7103489049086
2025-04-24 19:00:00+00:00,995.7103489049086
2025-04-25 13:00:00+00:00,995.7103489049086
2025-04-25 14:00:00+00:00,995.7103489049086
2025-04-25 15:00:00+00:00,995.7103489049086
2025-04-25 16:00:00+00:00,995.7103489049086
2025-04-25 17:00:00+00:00,995.7103489049086
2025-04-25 18:00:00+00:00,995.7103489049086
2025-04-25 19:00:00+00:00,995.7103489049086
2025-04-28 13:00:00+00:00,995.7103489049086
2025-04-28 14:00:00+00:00,995.7103489049086
2025-04-28 15:00:00+00:00,995.7103489049086
2025-04-28 16:00:00+00:00,995.7103489049086
2025-04-28 17:00:00+00:00,995.7103489049086
2025-04-28 18:00:00+00:00,995.7103489049086
2025-04-28 19:00:00+00:00,995.7103489049086
2025-04-29 13:00:00+00:00,995.7103489049086
2025-04-29 14:00:00+00:00,995.7103489049086
2025-04-29 15:00:00+00:00,995.7103489049086
2025-04-29 16:00:00+00:00,995.7103489049086
2025-04-29 17:00:00+00:00,995.7103489049086
2025-04-29 19:00:00+00:00,995.7103489049086
2025-04-30 13:00:00+00:00,995.7103489049086
2025-04-30 14:00:00+00:00,995.7103489049086
2025-04-30 15:00:00+00:00,995.7103489049086
2025-04-30 16:00:00+00:00,995.7103489049086
2025-04-30 17:00:00+00:00,995.7103489049086
2025-04-30 18:00:00+00:00,995.7103489049086
2025-05-01 13:00:00+00:00,995.7103489049086
2025-05-01 14:00:00+00:00,995.7103489049086
2025-05-01 15:00:00+00:00,995.7103489049086
2025-05-01 16:00:00+00:00,995.7103489049086
2025-05-01 17:00:00+00:00,995.7103489049086
2025-05-01 18:00:00+00:00,995.7103489049086
2025-05-01 19:00:00+00:00,995.7103489049086
2025-05-02 13:00:00+00:00,995.7103489049086
2025-05-02 14:00:00+00:00,995.7103489049086
2025-05-02 15:00:00+00:00,995.7103489049086
2025-05-02 16:00:00+00:00,995.7103489049086
2025-05-02 17:00:00+00:00,995.7103489049086
2025-05-02 18:00:00+00:00,995.7103489049086
2025-05-02 19:00:00+00:00,995.7103489049086
2025-05-05 13:00:00+00:00,995.7103489049086
2025-05-05 14:00:00+00:00,995.7103489049086
2025-05-05 15:00:00+00:00,995.7103489049086
2025-05-05 16:00:00+00:00,995.7103489049086
2025-05-05 17:00:00+00:00,995.7103489049086
2025-05-05 18:00:00+00:00,995.7103489049086
2025-05-05 19:00:00+00:00,995.7103489049086
2025-05-06 13:00:00+00:00,995.7103489049086
2025-05-06 14:00:00+00:00,995.7103489049086
2025-05-06 15:00:00+00:00,995.7103489049086
2025-05-06 16:00:00+00:00,995.7103489049086
2025-05-06 17:00:00+00:00,995.7103489049086
2025-05-06 18:00:00+00:00,995.7103489049086
2025-05-06 19:00:00+00:00,995.7103489049086
2025-05-07 13:00:00+00:00,995.7103489049086
2025-05-07 15:00:00+00:00,995.7103489049086
2025-05-07 17:00:00+00:00,995.7103489049086
2025-05-07 18:00:00+00:00,995.7103489049086
2025-05-07 19:00:00+00:00,995.7103489049086
2025-05-08 13:00:00+00:00,995.7103489049086
2025-05-08 14:00:00+00:00,995.7103489049086
2025-05-08 15:00:00+00:00,995.7103489049086
2025-05-08 16:00:00+00:00,995.7103489049086
2025-05-08 17:00:00+00:00,995.7103489049086
2025-05-08 18:00:00+00:00,995.7103489049086
2025-05-08 19:00:00+00:00,995.7103489049086
2025-05-09 13:00:00+00:00,995.7103489049086
2025-05-09 14:00:00+00:00,995.7103489049086
2025-05-09 15:00:00+00:00,995.7103489049086
2025-05-09 16:00:00+00:00,995.7103489049086
2025-05-09 17:00:00+00:00,995.7103489049086
2025-05-09 18:00:00+00:00,995.7103489049086
2025-05-09 19:00:00+00:00,995.7103489049086
2025-05-12 13:00:00+00:00,995.7103489049086
2025-05-12 14:00:00+00:00,995.7103489049086
2025-05-12 15:00:00+00:00,995.7103489049086
2025-05-12 16:00:00+00:00,995.7103489049086
2025-05-12 17:00:00+00:00,995.7103489049086
2025-05-12 18:00:00+00:00,995.7103489049086
2025-05-12 19:00:00+00:00,995.7103489049086
2025-05-13 13:00:00+00:00,995.7103489049086
2025-05-13 14:00:00+00:00,995.7103489049086
2025-05-13 15:00:00+00:00,995.7103489049086
2025-05-13 17:00:00+00:00,995.7103489049086
2025-05-13 18:00:00+00:00,995.7103489049086
2025-05-13 19:00:00+00:00,995.7103489049086
2025-05-14 13:00:00+00:00,995.7103489049086
2025-05-14 14:00:00+00:00,995.7103489049086
2025-05-14 15:00:00+00:00,995.7103489049086
2025-05-14 16:00:00+00:00,995.7103489049086
2025-05-14 17:00:00+00:00,995.7103489049086
2025-05-14 18:00:00+00:00,995.7103489049086
2025-05-14 19:00:00+00:00,995.7103489049086
2025-05-15 13:00:00+00:00,995.7103489049086
2025-05-15 14:00:00+00:00,995.7103489049086
2025-05-15 15:00:00+00:00,995.7103489049086
2025-05-15 16:00:00+00:00,995.7103489049086
2025-05-15 17:00:00+00:00,995.7103489049086
2025-05-15 18:00:00+00:00,995.7103489049086
2025-05-15 19:00:00+00:00,995.7103489049086
2025-05-16 13:00:00+00:00,942.7686007825905
2025-05-16 14:00:00+00:00,934.2109678448653
2025-05-16 15:00:00+00:00,946.8459588095863
2025-05-16 16:00:00+00:00,959.0703029697819
2025-05-16 17:00:00+00:00,956.7675376163431
2025-05-16 18:00:00+00:00,912.0523035305977
2025-05-16 19:00:00+00:00,926.2522673151434
2025-05-19 13:00:00+00:00,931.8717877295029
2025-05-19 14:00:00+00:00,894.5353430411225
2025-05-19 15:00:00+00:00,872.9941248134246
2025-05-19 16:00:00+00:00,861.0718811205678
2025-05-19 17:00:00+00:00,859.4394204984588
2025-05-19 18:00:00+00:00,862.9466910417208
2025-05-19 19:00:00+00:00,871.8876784244463
2025-05-20 13:00:00+00:00,886.72273134239
2025-05-20 14:00:00+00:00,900.460123265518
2025-05-20 15:00:00+00:00,915.9115907287681
2025-05-20 16:00:00+00:00,917.7052181043747
2025-05-20 17:00:00+00:00,928.244374077981
2025-05-20 18:00:00+00:00,931.2384969288979
2025-05-20 19:00:00+00:00,907.0820921404207
2025-05-21 13:00:00+00:00,957.7643166494576
2025-05-21 14:00:00+00:00,948.2389231124297
2025-05-21 15:00:00+00:00,937.7756702001458
2025-05-21 16:00:00+00:00,979.2091067863712
2025-05-21 17:00:00+00:00,972.6730604206109
2025-05-21 18:00:00+00:00,965.9270580192785
2025-05-21 19:00:00+00:00,950.8641173370854
2025-05-22 13:00:00+00:00,967.9757701544323
2025-05-22 14:00:00+00:00,1001.2119001260212
2025-05-22 16:00:00+00:00,1010.173685751794
2025-05-22 17:00:00+00:00,1000.8841040438151
2025-05-22 18:00:00+00:00,983.103777205202
2025-05-22 19:00:00+00:00,1016.6742535326656
2025-05-23 13:00:00+00:00,1113.1296243661404
2025-05-23 14:00:00+00:00,1101.9843933999364
2025-05-23 15:00:00+00:00,1096.9513396332359
2025-05-23 16:00:00+00:00,1076.0614867990398
2025-05-23 17:00:00+00:00,1075.588331210669
2025-05-23 18:00:00+00:00,1077.9920458114382
2025-05-23 19:00:00+00:00,1075.1063902281337
2025-05-27 13:00:00+00:00,972.6370780311493
2025-05-27 14:00:00+00:00,981.5061006349536
2025-05-27 15:00:00+00:00,989.1619280189959
2025-05-27 16:00:00+00:00,975.7947227078982
2025-05-27 17:00:00+00:00,973.233259536806
2025-05-27 18:00:00+00:00,968.3614439557116
2025-05-27 19:00:00+00:00,983.0758856768784
2025-05-28 13:00:00+00:00,1001.0128061017292
2025-05-28 14:00:00+00:00,1024.584733303794
2025-05-28 15:00:00+00:00,1022.0012215413446
2025-05-28 16:00:00+00:00,1039.723085026678
2025-05-28 17:00:00+00:00,1050.2216497275108
2025-05-28 18:00:00+00:00,1051.797206274292
2025-05-28 19:00:00+00:00,1065.0666149451065
2025-05-29 13:00:00+00:00,1055.0371604020768
2025-05-29 14:00:00+00:00,1039.5903375381938
2025-05-29 15:00:00+00:00,1006.9574109254277
2025-05-29 16:00:00+00:00,995.1425152321556
2025-05-29 17:00:00+00:00,1003.9274367653306
2025-05-29 18:00:00+00:00,992.3937912856438
2025-05-29 19:00:00+00:00,989.2970961147925
2025-05-30 13:00:00+00:00,995.437818540186
2025-05-30 14:00:00+00:00,1019.4954699947892
2025-05-30 15:00:00+00:00,1028.3390216775833
2025-05-30 16:00:00+00:00,992.7435125163842
2025-05-30 17:00:00+00:00,978.8675062356891
2025-05-30 18:00:00+00:00,970.7819973450737
2025-05-30 19:00:00+00:00,953.2653738638355
2025-06-02 13:00:00+00:00,987.3183903426336
2025-06-02 14:00:00+00:00,991.4943349071635
2025-06-02 15:00:00+00:00,997.3936442105481
2025-06-02 16:00:00+00:00,960.2941805751897
2025-06-02 17:00:00+00:00,947.4392516090855
2025-06-02 18:00:00+00:00,944.5570856410627
2025-06-02 19:00:00+00:00,947.5325704463374
2025-06-03 13:00:00+00:00,987.4564769635082
2025-06-03 14:00:00+00:00,993.1262677925847
2025-06-03 15:00:00+00:00,960.9119834812523
2025-06-03 16:00:00+00:00,958.2259351149252
2025-06-03 17:00:00+00:00,969.4250154316907
2025-06-03 18:00:00+00:00,970.7900882062108
2025-06-03 19:00:00+00:00,964.1240460807112
2025-06-04 13:00:00+00:00,1077.3263183938493
2025-06-04 14:00:00+00:00,1030.727080552442
2025-06-04 15:00:00+00:00,1045.8167858574693
2025-06-04 16:00:00+00:00,1020.0765668647368
2025-06-04 17:00:00+00:00,1022.482035618391
2025-06-04 18:00:00+00:00,1028.9067599861103
2025-06-04 19:00:00+00:00,1043.4523764651062
2025-06-05 13:00:00+00:00,1080.752406391564
2025-06-05 14:00:00+00:00,1057.9528881522438
2025-06-05 15:00:00+00:00,1024.4623960327272
2025-06-05 16:00:00+00:00,1036.5185141195548
2025-06-05 17:00:00+00:00,1033.7263160912428
2025-06-05 18:00:00+00:00,1023.4470444889492
2025-06-05 19:00:00+00:00,1041.3381655889152
2025-06-06 13:00:00+00:00,990.5977433027225
2025-06-06 14:00:00+00:00,1003.8137655920876
2025-06-06 15:00:00+00:00,984.5127546468448
2025-06-06 16:00:00+00:00,997.9509664148513
2025-06-06 17:00:00+00:00,999.2180518206353
2025-06-06 18:00:00+00:00,1004.4696087886231
2025-06-06 19:00:00+00:00,1005.1075441885973
2025-06-09 13:00:00+00:00,1049.7588804244415
2025-06-09 14:00:00+00:00,1075.655093834611
2025-06-09 15:00:00+00:00,1058.151301178102
2025-06-09 16:00:00+00:00,1047.0270327332275
2025-06-09 17:00:00+00:00,1044.7547812053947
2025-06-09 18:00:00+00:00,1061.166813803406
2025-06-09 19:00:00+00:00,1058.0752909686125
2025-06-10 13:00:00+00:00,1030.5537476883162
2025-06-10 14:00:00+00:00,1005.9207691282943
2025-06-10 15:00:00+00:00,1034.7881316740109
2025-06-10 16:00:00+00:00,1030.927717570354
2025-06-10 17:00:00+00:00,1037.319711663189
2025-06-10 18:00:00+00:00,1041.5543105405304
2025-06-10 19:00:00+00:00,1036.817138506205
2025-06-11 13:00:00+00:00,1096.9303291958963
2025-06-11 14:00:00+00:00,1112.2835967600247
2025-06-11 15:00:00+00:00,1101.914789590484
2025-06-11 16:00:00+00:00,1098.710984648496
2025-06-11 18:00:00+00:00,1185.0382021338344
2025-06-11 19:00:00+00:00,1208.8992321821713
2025-06-12 13:00:00+00:00,1165.4523057719243
2025-06-12 14:00:00+00:00,1179.4781289206812
2025-06-12 15:00:00+00:00,1192.4102931516754
2025-06-12 17:00:00+00:00,1171.9490902827927
2025-06-12 18:00:00+00:00,1159.094996947986
2025-06-12 19:00:00+00:00,1159.7148577550613
2025-06-13 13:00:00+00:00,1372.4190781399673
2025-06-13 14:00:00+00:00,1372.4190781399673
2025-06-13 15:00:00+00:00,1372.4190781399673
2025-06-13 16:00:00+00:00,1372.4190781399673
2025-06-13 17:00:00+00:00,1372.4190781399673
2025-06-13 18:00:00+00:00,1372.4190781399673
2025-06-13 19:00:00+00:00,1372.4190781399673
2025-06-16 13:00:00+00:00,1372.4190781399673
2025-06-16 14:00:00+00:00,1372.4190781399673
2025-06-16 15:00:00+00:00,1372.4190781399673
2025-06-16 16:00:00+00:00,1372.4190781399673
2025-06-16 17:00:00+00:00,1372.4190781399673
2025-06-16 18:00:00+00:00,1372.4190781399673
2025-06-16 19:00:00+00:00,1372.4190781399673
2025-06-17 13:00:00+00:00,1372.4190781399673
2025-06-17 14:00:00+00:00,1372.4190781399673
2025-06-17 15:00:00+00:00,1372.4190781399673
2025-06-17 16:00:00+00:00,1372.4190781399673
2025-06-17 17:00:00+00:00,1372.4190781399673
2025-06-17 18:00:00+00:00,1372.4190781399673
2025-06-17 19:00:00+00:00,1372.4190781399673
2025-06-18 13:00:00+00:00,1372.4190781399673
2025-06-18 15:00:00+00:00,1372.4190781399673
2025-06-18 17:00:00+00:00,1372.4190781399673
2025-06-18 18:00:00+00:00,1372.4190781399673
2025-06-18 19:00:00+00:00,1372.4190781399673
2025-06-20 13:00:00+00:00,1372.4190781399673
2025-06-20 14:00:00+00:00,1372.4190781399673
2025-06-20 15:00:00+00:00,1372.4190781399673
2025-06-20 16:00:00+00:00,1372.4190781399673
2025-06-20 18:00:00+00:00,1372.4190781399673
2025-06-20 19:00:00+00:00,1372.4190781399673
2025-06-23 13:00:00+00:00,1372.4190781399673
2025-06-23 14:00:00+00:00,1372.4190781399673
2025-06-23 16:00:00+00:00,1372.4190781399673
2025-06-23 17:00:00+00:00,1372.4190781399673
2025-06-23 19:00:00+00:00,1372.4190781399673
2025-06-24 13:00:00+00:00,1372.4190781399673
2025-06-24 14:00:00+00:00,1372.4190781399673
2025-06-25 13:00:00+00:00,1372.4190781399673
2025-06-25 14:00:00+00:00,1372.4190781399673
2025-06-25 15:00:00+00:00,1372.4190781399673
2025-06-25 16:00:00+00:00,1372.4190781399673
2025-06-25 17:00:00+00:00,1372.4190781399673
2025-06-25 19:00:00+00:00,1372.4190781399673
2025-06-26 13:00:00+00:00,1372.4190781399673
2025-06-26 14:00:00+00:00,1372.4190781399673
2025-06-26 19:00:00+00:00,1372.4190781399673
2025-06-27 13:00:00+00:00,1372.4190781399673
2025-06-27 14:00:00+00:00,1372.4190781399673
2025-06-27 15:00:00+00:00,1372.4190781399673
2025-06-27 16:00:00+00:00,1372.4190781399673
2025-06-27 17:00:00+00:00,1372.4190781399673
2025-06-27 18:00:00+00:00,1372.4190781399673
2025-06-27 19:00:00+00:00,1372.4190781399673
2025-06-30 13:00:00+00:00,1372.4190781399673
2025-06-30 14:00:00+00:00,1372.4190781399673
2025-06-30 15:00:00+00:00,1372.4190781399673
2025-06-30 16:00:00+00:00,1372.4190781399673
2025-06-30 17:00:00+00:00,1372.4190781399673
2025-06-30 19:00:00+00:00,1372.4190781399673
2025-07-01 13:00:00+00:00,1372.4190781399673
2025-07-01 14:00:00+00:00,1319.6814719570846
2025-07-01 15:00:00+00:00,1291.2043748270248
2025-07-01 16:00:00+00:00,1293.2548385123505
2025-07-01 17:00:00+00:00,1315.3274900379076
2025-07-01 18:00:00+00:00,1299.246532631412
2025-07-01 19:00:00+00:00,1306.2925788363
2025-07-02 13:00:00+00:00,1359.635969731194
2025-07-02 14:00:00+00:00,1363.1587165535327
2025-07-02 15:00:00+00:00,1408.4545346987616
2025-07-02 16:00:00+00:00,1402.7839905892542
2025-07-02 17:00:00+00:00,1393.6677776184104
2025-07-02 18:00:00+00:00,1391.1467417054
2025-07-02 19:00:00+00:00,1372.7140633566337
2025-07-03 13:00:00+00:00,1387.2516745727426
2025-07-03 14:00:00+00:00,1369.6993285505662
2025-07-03 15:00:00+00:00,1367.3330567819507
2025-07-07 13:00:00+00:00,1384.5928894754436
2025-07-07 14:00:00+00:00,1386.9460543977511
2025-07-07 15:00:00+00:00,1417.7817720880903
2025-07-07 16:00:00+00:00,1398.9017652883115
2025-07-07 17:00:00+00:00,1420.3032443185884
2025-07-07 18:00:00+00:00,1432.0487499693813
2025-07-07 19:00:00+00:00,1475.1618408431184
2025-07-08 13:00:00+00:00,1551.9374898597446
2025-07-08 14:00:00+00:00,1556.9419535657744
2025-07-08 15:00:00+00:00,1561.3293996958475
2025-07-08 16:00:00+00:00,1593.2756859519059
2025-07-08 17:00:00+00:00,1577.418040631483
2025-07-08 18:00:00+00:00,1535.3733666803184
2025-07-08 19:00:00+00:00,1537.1349774347764
2025-07-09 13:00:00+00:00,1467.2243995624394
2025-07-09 14:00:00+00:00,1521.3073349016333
2025-07-09 15:00:00+00:00,1554.968746570252
2025-07-09 16:00:00+00:00,1541.0705732910997
2025-07-09 17:00:00+00:00,1523.3009561175966
2025-07-09 18:00:00+00:00,1507.7417435631478
2025-07-09 19:00:00+00:00,1513.1734800498434
2025-07-10 13:00:00+00:00,1566.537448082913
2025-07-10 14:00:00+00:00,1575.2054085370207
2025-07-10 15:00:00+00:00,1581.631075409356
2025-07-10 16:00:00+00:00,1590.8158451465792
2025-07-10 17:00:00+00:00,1577.031405290116
2025-07-10 18:00:00+00:00,1575.3784804363447
2025-07-10 19:00:00+00:00,1596.2182680861815
2025-07-11 13:00:00+00:00,1599.6878719414024
2025-07-11 14:00:00+00:00,1619.6255392820726
2025-07-11 15:00:00+00:00,1620.2419680069302
2025-07-11 16:00:00+00:00,1613.0658208793081
2025-07-11 17:00:00+00:00,1601.8100308728103
2025-07-11 18:00:00+00:00,1583.7053377551667
2025-07-11 19:00:00+00:00,1577.4219434378508
2025-07-14 13:00:00+00:00,1659.0920686055485
2025-07-14 14:00:00+00:00,1677.5992949833274
2025-07-14 15:00:00+00:00,1697.2248464694615
2025-07-14 16:00:00+00:00,1696.7108966093008
2025-07-14 17:00:00+00:00,1688.5879784210485
2025-07-14 19:00:00+00:00,1673.604360650373
2025-07-15 13:00:00+00:00,1701.2346601124636
2025-07-15 14:00:00+00:00,1680.6524558069889
2025-07-15 15:00:00+00:00,1709.7007817012684
2025-07-15 16:00:00+00:00,1701.8289184195555
2025-07-15 17:00:00+00:00,1720.4853660617102
2025-07-15 19:00:00+00:00,1731.4633818045425
2025-07-16 13:00:00+00:00,1715.6096392904874
2025-07-16 14:00:00+00:00,1736.3245380745104
2025-07-16 15:00:00+00:00,1718.0307368975423
2025-07-16 16:00:00+00:00,1700.9662301337682
2025-07-16 17:00:00+00:00,1693.4813976902672
2025-07-16 19:00:00+00:00,1666.2924211667516
2025-07-17 13:00:00+00:00,1837.2366204085752
2025-07-17 15:00:00+00:00,1837.2366204085752
2025-07-17 16:00:00+00:00,1837.2366204085752
2025-07-17 17:00:00+00:00,1837.2366204085752
2025-07-18 13:00:00+00:00,1837.2366204085752
2025-07-18 17:00:00+00:00,1837.2366204085752
2025-07-18 19:00:00+00:00,1837.2366204085752
2025-07-21 13:00:00+00:00,1837.2366204085752
2025-07-21 14:00:00+00:00,1837.2366204085752
2025-07-21 16:00:00+00:00,1837.2366204085752
2025-07-21 19:00:00+00:00,1837.2366204085752
2025-07-22 13:00:00+00:00,1837.2366204085752
2025-07-22 14:00:00+00:00,1837.2366204085752
2025-07-22 15:00:00+00:00,1837.2366204085752
2025-07-22 18:00:00+00:00,1837.2366204085752
2025-07-22 19:00:00+00:00,1837.2366204085752
2025-07-23 13:00:00+00:00,1837.2366204085752
2025-07-23 14:00:00+00:00,1837.2366204085752
2025-07-23 15:00:00+00:00,1837.2366204085752
2025-07-23 16:00:00+00:00,1837.2366204085752
2025-07-23 17:00:00+00:00,1837.2366204085752
2025-07-23 18:00:00+00:00,1837.2366204085752
2025-07-23 19:00:00+00:00,1837.2366204085752
2025-07-24 13:00:00+00:00,1837.2366204085752
2025-07-24 14:00:00+00:00,1837.2366204085752
2025-07-24 15:00:00+00:00,1837.2366204085752
2025-07-24 16:00:00+00:00,1837.2366204085752
2025-07-24 19:00:00+00:00,1837.2366204085752
2025-07-25 13:00:00+00:00,1837.2366204085752
2025-07-25 14:00:00+00:00,1837.2366204085752
2025-07-25 15:00:00+00:00,1837.2366204085752
2025-07-25 16:00:00+00:00,1837.2366204085752
2025-07-25 17:00:00+00:00,1837.2366204085752
2025-07-25 18:00:00+00:00,1837.2366204085752
2025-07-28 13:00:00+00:00,1837.2366204085752
2025-07-28 14:00:00+00:00,1837.2366204085752
2025-07-28 15:00:00+00:00,1837.2366204085752
2025-07-28 16:00:00+00:00,1837.2366204085752
2025-07-28 17:00:00+00:00,1837.2366204085752
2025-07-28 18:00:00+00:00,1837.2366204085752
2025-07-28 19:00:00+00:00,1837.2366204085752
2025-07-29 13:00:00+00:00,1837.2366204085752
2025-07-29 14:00:00+00:00,1837.2366204085752
2025-07-29 15:00:00+00:00,1837.2366204085752
2025-07-29 16:00:00+00:00,1837.2366204085752
2025-07-29 17:00:00+00:00,1837.2366204085752
2025-07-29 18:00:00+00:00,1837.2366204085752
2025-07-29 19:00:00+00:00,1837.2366204085752
2025-07-30 13:00:00+00:00,1837.2366204085752
2025-07-30 14:00:00+00:00,1837.2366204085752
2025-07-30 15:00:00+00:00,1837.2366204085752
2025-07-30 16:00:00+00:00,1837.2366204085752
2025-07-30 17:00:00+00:00,1837.2366204085752
2025-07-30 18:00:00+00:00,1837.2366204085752
2025-07-30 19:00:00+00:00,1837.2366204085752
2025-07-31 13:00:00+00:00,1837.2366204085752
2025-07-31 16:00:00+00:00,1837.2366204085752
2025-07-31 17:00:00+00:00,1837.2366204085752
2025-07-31 18:00:00+00:00,1837.2366204085752
2025-07-31 19:00:00+00:00,1837.2366204085752
2025-08-01 13:00:00+00:00,1837.2366204085752
2025-08-01 14:00:00+00:00,1837.2366204085752
2025-08-01 15:00:00+00:00,1837.2366204085752
2025-08-01 16:00:00+00:00,1837.2366204085752
2025-08-01 17:00:00+00:00,1837.2366204085752
2025-08-04 13:00:00+00:00,1837.2366204085752
2025-08-04 14:00:00+00:00,1837.2366204085752
2025-08-04 15:00:00+00:00,1837.2366204085752
2025-08-04 17:00:00+00:00,1837.2366204085752
2025-08-04 18:00:00+00:00,1837.2366204085752
2025-08-04 19:00:00+00:00,1837.2366204085752
2025-08-05 13:00:00+00:00,1837.2366204085752
2025-08-05 14:00:00+00:00,1837.2366204085752
2025-08-05 16:00:00+00:00,1837.2366204085752
2025-08-05 17:00:00+00:00,1837.2366204085752
2025-08-05 19:00:00+00:00,1837.2366204085752
2025-08-06 13:00:00+00:00,1837.2366204085752
2025-08-06 15:00:00+00:00,1837.2366204085752
2025-08-06 19:00:00+00:00,1837.2366204085752
2025-08-07 13:00:00+00:00,1837.2366204085752
2025-08-07 14:00:00+00:00,1837.2366204085752
2025-08-07 15:00:00+00:00,1837.2366204085752
2025-08-07 16:00:00+00:00,1837.2366204085752
2025-08-07 17:00:00+00:00,1837.2366204085752
2025-08-07 18:00:00+00:00,1837.2366204085752
2025-08-07 19:00:00+00:00,1837.2366204085752
2025-08-08 13:00:00+00:00,1837.2366204085752
2025-08-08 14:00:00+00:00,1837.2366204085752
2025-08-08 16:00:00+00:00,1837.2366204085752
2025-08-08 17:00:00+00:00,1837.2366204085752
2025-08-08 18:00:00+00:00,1837.2366204085752
2025-08-08 19:00:00+00:00,1837.2366204085752
2025-08-11 13:00:00+00:00,1632.2589125387276
2025-08-11 14:00:00+00:00,1618.057542485069
2025-08-11 15:00:00+00:00,1609.5577809894878
2025-08-11 18:00:00+00:00,1650.9993800037992
2025-08-11 19:00:00+00:00,1643.8713854253995
2025-08-12 13:00:00+00:00,1854.010227240495
2025-08-12 14:00:00+00:00,1850.3649597965627
2025-08-12 15:00:00+00:00,1857.0081014427371
2025-08-12 16:00:00+00:00,1820.0391480283602
2025-08-12 17:00:00+00:00,1858.4428524378466
2025-08-12 18:00:00+00:00,1855.254245665213
2025-08-13 13:00:00+00:00,1935.0035255851951
2025-08-13 14:00:00+00:00,1988.7444698856943
2025-08-13 15:00:00+00:00,1982.3920003523774
2025-08-13 16:00:00+00:00,1948.3603197436091
2025-08-13 18:00:00+00:00,1994.6880533194744
2025-08-13 19:00:00+00:00,2037.754369163788
2025-08-14 13:00:00+00:00,1935.4240234690028
2025-08-14 14:00:00+00:00,1954.650009078914
2025-08-14 15:00:00+00:00,1942.407598142567
2025-08-14 16:00:00+00:00,1944.4256147119872
2025-08-14 18:00:00+00:00,1992.1616527292838
2025-08-15 13:00:00+00:00,1970.9354032249219
2025-08-15 14:00:00+00:00,1946.3834781898747
2025-08-15 16:00:00+00:00,1948.6745727943878
2025-08-15 17:00:00+00:00,1949.2446152053074
2025-08-15 18:00:00+00:00,1969.4625486091509
2025-08-18 13:00:00+00:00,1874.1944389616942
2025-08-18 14:00:00+00:00,1869.761969694234
2025-08-18 15:00:00+00:00,1868.2454060182654
2025-08-18 16:00:00+00:00,1864.2638360526769
2025-08-18 18:00:00+00:00,1891.2912765150916
2025-08-18 19:00:00+00:00,1877.5373575143274
2025-08-19 13:00:00+00:00,2075.310257325515
2025-08-19 14:00:00+00:00,2110.747742960563
2025-08-19 15:00:00+00:00,2073.746800448953
2025-08-19 17:00:00+00:00,2060.0586682458866
2025-08-19 18:00:00+00:00,2086.8343134085803
2025-08-19 19:00:00+00:00,2090.436489054899
2025-08-20 13:00:00+00:00,2099.793653270596
2025-08-20 15:00:00+00:00,2110.3404617831734
2025-08-20 16:00:00+00:00,2114.931171896876
2025-08-20 17:00:00+00:00,2115.352630352087
2025-08-21 13:00:00+00:00,2082.9906272028334
2025-08-21 14:00:00+00:00,2064.9326731572232
2025-08-21 18:00:00+00:00,2049.1766358069367
2025-08-21 19:00:00+00:00,2049.283328945064
2025-08-22 13:00:00+00:00,2179.1406512137896
2025-08-22 14:00:00+00:00,2213.6742460487026
2025-08-22 15:00:00+00:00,2217.5070251950865
2025-08-22 16:00:00+00:00,2185.9073068833786
2025-08-22 18:00:00+00:00,2147.1454194388502
2025-08-22 19:00:00+00:00,2161.3508550040724
2025-08-25 13:00:00+00:00,2039.514116444579
2025-08-25 14:00:00+00:00,2036.4852298731714
2025-08-25 15:00:00+00:00,2029.2597517750494
2025-08-25 17:00:00+00:00,2022.1276072063436
2025-08-26 13:00:00+00:00,1988.6701904499482
2025-08-26 14:00:00+00:00,2040.4584153794042
2025-08-26 18:00:00+00:00,2037.2734258132355
2025-08-26 19:00:00+00:00,2041.0162482280361
2025-08-27 13:00:00+00:00,1909.8639036339662
2025-08-27 14:00:00+00:00,1887.724598993776
2025-08-27 15:00:00+00:00,1852.6244099969217
2025-08-27 16:00:00+00:00,1839.6707600531865
2025-08-27 17:00:00+00:00,1804.737176877362
2025-08-27 18:00:00+00:00,1823.5917794456338
2025-08-27 19:00:00+00:00,1814.8545897475021
2025-08-28 14:00:00+00:00,1843.6931041292662
2025-08-28 18:00:00+00:00,1855.641021866377
2025-08-28 19:00:00+00:00,1837.2625950514444
2025-08-29 15:00:00+00:00,1821.5928972262748
2025-08-29 16:00:00+00:00,1835.4580325371978
2025-08-29 19:00:00+00:00,1839.358033902785
2025-09-02 13:00:00+00:00,1855.1763620505972
2025-09-02 14:00:00+00:00,1853.311903553272
2025-09-02 15:00:00+00:00,1851.4638046085397
2025-09-02 18:00:00+00:00,1886.3676555954623
2025-09-02 19:00:00+00:00,1896.0717205159797
2025-09-03 13:00:00+00:00,1837.29208226504
2025-09-03 15:00:00+00:00,1840.68186575164
2025-09-03 16:00:00+00:00,1841.8017528903586
2025-09-03 17:00:00+00:00,1854.7252223400928
2025-09-04 13:00:00+00:00,1882.028740781482
2025-09-04 14:00:00+00:00,1899.0273411072535
2025-09-04 18:00:00+00:00,1896.6254033743057
2025-09-05 13:00:00+00:00,1865.7433747032676
2025-09-05 14:00:00+00:00,1850.3373893648943
2025-09-05 15:00:00+00:00,1837.0865346367016
2025-09-05 16:00:00+00:00,1826.5780506688504
2025-09-05 17:00:00+00:00,1824.5414861060726
2025-09-05 18:00:00+00:00,1845.6498974727972
2025-09-08 13:00:00+00:00,1825.3605240805223
2025-09-08 14:00:00+00:00,1852.5607326385893
2025-09-08 15:00:00+00:00,1862.3196402255664
2025-09-08 18:00:00+00:00,1891.4041856995368
2025-09-08 19:00:00+00:00,1953.0177025928529
2025-09-09 13:00:00+00:00,2071.842815042613
2025-09-09 14:00:00+00:00,2109.9456260100296
2025-09-09 15:00:00+00:00,2051.3736867563193
2025-09-09 17:00:00+00:00,2101.9145983027142
2025-09-09 18:00:00+00:00,2088.778340354741
2025-09-09 19:00:00+00:00,2099.010369489666
2025-09-10 13:00:00+00:00,2034.941612959057
2025-09-10 14:00:00+00:00,2011.8201524834942
2025-09-10 15:00:00+00:00,2024.4501902851243
2025-09-10 17:00:00+00:00,2016.4365162469392
2025-09-11 13:00:00+00:00,2150.257239195129
2025-09-11 14:00:00+00:00,2172.7977051626062
2025-09-11 18:00:00+00:00,2172.7977051626062
2025-09-11 19:00:00+00:00,2172.7977051626062
2025-09-12 13:00:00+00:00,2172.7977051626062
2025-09-12 14:00:00+00:00,2172.7977051626062
2025-09-12 15:00:00+00:00,2172.7977051626062
2025-09-12 16:00:00+00:00,2172.7977051626062
2025-09-12 17:00:00+00:00,2172.7977051626062
2025-09-12 18:00:00+00:00,2172.7977051626062
2025-09-12 19:00:00+00:00,2172.7977051626062
2025-09-15 13:00:00+00:00,2172.7977051626062
2025-09-15 14:00:00+00:00,2172.7977051626062
2025-09-15 17:00:00+00:00,2172.7977051626062
2025-09-15 18:00:00+00:00,2172.7977051626062
2025-09-15 19:00:00+00:00,2172.7977051626062
2025-09-16 13:00:00+00:00,2172.7977051626062
2025-09-16 18:00:00+00:00,2172.7977051626062
2025-09-17 13:00:00+00:00,2172.7977051626062
2025-09-17 16:00:00+00:00,2172.7977051626062
2025-09-17 17:00:00+00:00,2172.7977051626062
2025-09-17 18:00:00+00:00,2172.7977051626062
2025-09-17 19:00:00+00:00,2172.7977051626062
2025-09-18 13:00:00+00:00,2172.7977051626062
2025-09-18 14:00:00+00:00,2172.7977051626062
2025-09-18 16:00:00+00:00,2172.7977051626062
2025-09-18 18:00:00+00:00,2172.7977051626062
2025-09-19 13:00:00+00:00,2172.7977051626062
2025-09-19 15:00:00+00:00,2172.7977051626062
2025-09-19 17:00:00+00:00,2172.7977051626062
2025-09-19 19:00:00+00:00,2172.7977051626062
2025-09-22 13:00:00+00:00,2172.7977051626062
2025-09-22 14:00:00+00:00,2172.7977051626062
2025-09-22 15:00:00+00:00,2172.7977051626062
2025-09-22 18:00:00+00:00,2172.7977051626062
2025-09-22 19:00:00+00:00,2172.7977051626062
2025-09-23 13:00:00+00:00,2172.7977051626062
2025-09-23 14:00:00+00:00,2172.7977051626062
2025-09-23 15:00:00+00:00,2172.7977051626062
2025-09-23 19:00:00+00:00,2172.7977051626062
2025-09-24 15:00:00+00:00,2172.7977051626062
2025-09-24 17:00:00+00:00,2172.7977051626062
2025-09-24 18:00:00+00:00,2172.7977051626062
2025-09-24 19:00:00+00:00,2172.7977051626062
2025-09-25 13:00:00+00:00,2172.7977051626062
2025-09-25 15:00:00+00:00,2172.7977051626062
2025-09-25 17:00:00+00:00,2172.7977051626062
2025-09-25 18:00:00+00:00,2172.7977051626062
2025-09-26 13:00:00+00:00,2172.7977051626062
2025-09-26 14:00:00+00:00,2172.7977051626062
2025-09-26 17:00:00+00:00,2172.7977051626062
2025-09-26 18:00:00+00:00,2172.7977051626062
2025-09-26 19:00:00+00:00,2172.7977051626062
2025-09-29 13:00:00+00:00,2172.7977051626062
2025-09-29 14:00:00+00:00,2172.7977051626062
2025-09-29 16:00:00+00:00,2172.7977051626062
2025-09-29 17:00:00+00:00,2172.7977051626062
2025-09-29 18:00:00+00:00,2172.7977051626062
2025-09-29 19:00:00+00:00,2172.7977051626062
2025-09-30 13:00:00+00:00,2172.7977051626062
2025-09-30 14:00:00+00:00,2172.7977051626062
2025-09-30 15:00:00+00:00,2172.7977051626062
2025-09-30 16:00:00+00:00,2172.7977051626062
2025-09-30 18:00:00+00:00,2172.7977051626062
2025-09-30 19:00:00+00:00,2172.7977051626062
2025-10-01 13:00:00+00:00,2172.7977051626062
2025-10-01 14:00:00+00:00,2172.7977051626062
2025-10-01 16:00:00+00:00,2172.7977051626062
2025-10-01 19:00:00+00:00,2172.7977051626062
2025-10-02 13:00:00+00:00,2172.7977051626062
2025-10-02 14:00:00+00:00,2172.7977051626062
2025-10-02 15:00:00+00:00,2172.7977051626062
2025-10-02 16:00:00+00:00,2172.7977051626062
2025-10-02 17:00:00+00:00,2172.7977051626062
2025-10-02 18:00:00+00:00,2172.7977051626062
2025-10-02 19:00:00+00:00,2172.7977051626062
2025-10-03 13:00:00+00:00,2172.7977051626062
2025-10-03 14:00:00+00:00,2172.7977051626062
2025-10-03 15:00:00+00:00,2172.7977051626062
2025-10-03 16:00:00+00:00,2172.7977051626062
2025-10-03 17:00:00+00:00,2172.7977051626062
2025-10-03 19:00:00+00:00,2172.7977051626062
2025-10-06 13:00:00+00:00,2172.7977051626062
2025-10-06 14:00:00+00:00,2172.7977051626062
2025-10-06 15:00:00+00:00,2172.7977051626062
2025-10-06 16:00:00+00:00,2172.7977051626062
2025-10-06 17:00:00+00:00,2172.7977051626062
2025-10-06 18:00:00+00:00,2172.7977051626062
2025-10-06 19:00:00+00:00,2172.7977051626062
2025-10-07 13:00:00+00:00,2172.7977051626062
2025-10-07 14:00:00+00:00,2172.7977051626062
2025-10-07 15:00:00+00:00,2172.7977051626062
2025-10-07 16:00:00+00:00,2172.7977051626062
2025-10-07 17:00:00+00:00,2172.7977051626062
2025-10-07 18:00:00+00:00,2172.7977051626062
2025-10-07 19:00:00+00:00,2172.7977051626062
2025-10-08 13:00:00+00:00,2172.7977051626062
2025-10-08 14:00:00+00:00,2172.7977051626062
2025-10-08 15:00:00+00:00,2172.7977051626062
2025-10-08 18:00:00+00:00,2172.7977051626062
2025-10-08 19:00:00+00:00,2172.7977051626062
2025-10-09 13:00:00+00:00,2172.7977051626062
2025-10-09 14:00:00+00:00,2172.7977051626062
2025-10-09 15:00:00+00:00,2172.7977051626062
2025-10-09 18:00:00+00:00,2172.7977051626062
2025-10-10 13:00:00+00:00,2172.7977051626062
2025-10-10 14:00:00+00:00,2172.7977051626062
2025-10-10 15:00:00+00:00,2172.7977051626062
2025-10-10 16:00:00+00:00,2172.7977051626062
2025-10-10 18:00:00+00:00,2172.7977051626062
2025-10-13 13:00:00+00:00,2172.7977051626062
2025-10-13 14:00:00+00:00,2172.7977051626062
2025-10-13 15:00:00+00:00,2172.7977051626062
2025-10-13 16:00:00+00:00,2172.7977051626062
2025-10-13 18:00:00+00:00,2172.7977051626062
2025-10-13 19:00:00+00:00,2172.7977051626062
2025-10-14 13:00:00+00:00,2172.7977051626062
2025-10-14 14:00:00+00:00,2172.7977051626062
2025-10-14 16:00:00+00:00,2172.7977051626062
2025-10-14 17:00:00+00:00,2172.7977051626062
2025-10-14 18:00:00+00:00,2172.7977051626062
2025-10-14 19:00:00+00:00,2172.7977051626062
2025-10-15 13:00:00+00:00,2172.7977051626062
2025-10-15 14:00:00+00:00,2172.7977051626062
2025-10-15 15:00:00+00:00,2172.7977051626062
2025-10-15 18:00:00+00:00,2172.7977051626062
2025-10-15 19:00:00+00:00,2172.7977051626062
2025-10-16 13:00:00+00:00,2172.7977051626062
2025-10-16 14:00:00+00:00,2172.7977051626062
2025-10-16 15:00:00+00:00,2172.7977051626062
2025-10-16 16:00:00+00:00,2172.7977051626062
2025-10-16 17:00:00+00:00,2172.7977051626062
2025-10-16 18:00:00+00:00,2172.7977051626062
2025-10-16 19:00:00+00:00,2172.7977051626062
2025-10-17 13:00:00+00:00,2172.7977051626062
2025-10-17 14:00:00+00:00,2172.7977051626062
2025-10-17 15:00:00+00:00,2172.7977051626062
2025-10-17 17:00:00+00:00,2172.7977051626062
2025-10-17 18:00:00+00:00,2172.7977051626062
2025-10-20 13:00:00+00:00,2172.7977051626062
2025-10-20 14:00:00+00:00,2172.7977051626062
2025-10-20 17:00:00+00:00,2172.7977051626062
2025-10-20 18:00:00+00:00,2172.7977051626062
2025-10-21 13:00:00+00:00,2172.7977051626062
2025-10-21 14:00:00+00:00,2172.7977051626062
2025-10-21 16:00:00+00:00,2172.7977051626062
2025-10-21 17:00:00+00:00,2172.7977051626062
2025-10-21 18:00:00+00:00,2172.7977051626062
2025-10-21 19:00:00+00:00,2172.7977051626062
2025-10-22 13:00:00+00:00,2172.7977051626062
2025-10-22 14:00:00+00:00,2172.7977051626062
2025-10-22 16:00:00+00:00,2172.7977051626062
2025-10-22 17:00:00+00:00,2172.7977051626062
2025-10-22 18:00:00+00:00,2172.7977051626062
2025-10-22 19:00:00+00:00,2172.7977051626062
