Date,0
2024-01-02 14:00:00+00:00,0.0
2024-01-02 15:00:00+00:00,0.0
2024-01-02 16:00:00+00:00,0.0
2024-01-02 17:00:00+00:00,0.0
2024-01-02 18:00:00+00:00,0.0
2024-01-02 19:00:00+00:00,0.0
2024-01-02 20:00:00+00:00,0.0
2024-01-03 14:00:00+00:00,0.0
2024-01-03 15:00:00+00:00,0.0
2024-01-03 16:00:00+00:00,0.0
2024-01-03 17:00:00+00:00,0.0
2024-01-03 18:00:00+00:00,0.0
2024-01-03 19:00:00+00:00,0.0
2024-01-03 20:00:00+00:00,0.0
2024-01-04 14:00:00+00:00,0.0
2024-01-04 15:00:00+00:00,0.0
2024-01-04 16:00:00+00:00,0.0
2024-01-04 17:00:00+00:00,0.0
2024-01-04 18:00:00+00:00,0.0
2024-01-04 19:00:00+00:00,0.0
2024-01-04 20:00:00+00:00,0.0
2024-01-05 14:00:00+00:00,0.0
2024-01-05 15:00:00+00:00,0.0
2024-01-05 16:00:00+00:00,0.0
2024-01-05 17:00:00+00:00,0.0
2024-01-05 18:00:00+00:00,0.0
2024-01-05 19:00:00+00:00,0.0
2024-01-05 20:00:00+00:00,0.0
2024-01-08 14:00:00+00:00,0.0
2024-01-08 15:00:00+00:00,0.0
2024-01-08 16:00:00+00:00,0.0
2024-01-08 17:00:00+00:00,0.0
2024-01-08 18:00:00+00:00,0.0
2024-01-08 19:00:00+00:00,0.0
2024-01-08 20:00:00+00:00,0.0
2024-01-09 14:00:00+00:00,0.0
2024-01-09 15:00:00+00:00,0.0
2024-01-09 16:00:00+00:00,0.0
2024-01-09 17:00:00+00:00,0.0
2024-01-09 18:00:00+00:00,0.0
2024-01-09 19:00:00+00:00,0.0
2024-01-09 20:00:00+00:00,0.0
2024-01-10 14:00:00+00:00,0.0
2024-01-10 15:00:00+00:00,0.0
2024-01-10 16:00:00+00:00,0.0
2024-01-10 17:00:00+00:00,0.0
2024-01-10 18:00:00+00:00,0.0
2024-01-10 19:00:00+00:00,0.0
2024-01-10 20:00:00+00:00,0.0
2024-01-11 14:00:00+00:00,0.0
2024-01-11 15:00:00+00:00,0.0
2024-01-11 16:00:00+00:00,0.0
2024-01-11 17:00:00+00:00,0.0
2024-01-11 18:00:00+00:00,0.0
2024-01-11 19:00:00+00:00,0.0
2024-01-11 20:00:00+00:00,0.0
2024-01-12 14:00:00+00:00,0.0
2024-01-12 15:00:00+00:00,0.0
2024-01-12 16:00:00+00:00,0.0
2024-01-12 17:00:00+00:00,0.0
2024-01-12 18:00:00+00:00,0.0
2024-01-12 19:00:00+00:00,0.0
2024-01-12 20:00:00+00:00,0.0
2024-01-16 14:00:00+00:00,0.0
2024-01-16 15:00:00+00:00,0.0
2024-01-16 16:00:00+00:00,0.0
2024-01-16 17:00:00+00:00,0.0
2024-01-16 18:00:00+00:00,0.0
2024-01-16 19:00:00+00:00,0.0
2024-01-16 20:00:00+00:00,0.0
2024-01-17 14:00:00+00:00,0.0
2024-01-17 15:00:00+00:00,0.0
2024-01-17 16:00:00+00:00,0.0
2024-01-17 17:00:00+00:00,0.0
2024-01-17 18:00:00+00:00,0.0
2024-01-17 19:00:00+00:00,0.0
2024-01-17 20:00:00+00:00,0.0
2024-01-18 14:00:00+00:00,0.0
2024-01-18 15:00:00+00:00,0.0
2024-01-18 16:00:00+00:00,0.0
2024-01-18 17:00:00+00:00,0.0
2024-01-18 18:00:00+00:00,0.0
2024-01-18 19:00:00+00:00,0.0
2024-01-18 20:00:00+00:00,0.0
2024-01-19 14:00:00+00:00,0.0
2024-01-19 15:00:00+00:00,0.0
2024-01-19 16:00:00+00:00,0.0
2024-01-19 17:00:00+00:00,0.0
2024-01-19 18:00:00+00:00,0.0
2024-01-19 19:00:00+00:00,0.0
2024-01-19 20:00:00+00:00,0.0
2024-01-22 14:00:00+00:00,0.0
2024-01-22 15:00:00+00:00,0.0
2024-01-22 16:00:00+00:00,0.0
2024-01-22 17:00:00+00:00,0.0
2024-01-22 18:00:00+00:00,0.0
2024-01-22 19:00:00+00:00,0.0
2024-01-22 20:00:00+00:00,0.0
2024-01-23 14:00:00+00:00,0.0
2024-01-23 15:00:00+00:00,0.0
2024-01-23 16:00:00+00:00,0.0
2024-01-23 17:00:00+00:00,0.0
2024-01-23 18:00:00+00:00,0.0
2024-01-23 19:00:00+00:00,0.0
2024-01-23 20:00:00+00:00,0.0
2024-01-24 14:00:00+00:00,0.0
2024-01-24 15:00:00+00:00,0.0
2024-01-24 16:00:00+00:00,0.0
2024-01-24 17:00:00+00:00,0.0
2024-01-24 18:00:00+00:00,0.0
2024-01-24 19:00:00+00:00,0.0
2024-01-24 20:00:00+00:00,0.0
2024-01-25 14:00:00+00:00,0.0
2024-01-25 15:00:00+00:00,0.0
2024-01-25 16:00:00+00:00,0.0
2024-01-25 17:00:00+00:00,0.0
2024-01-25 18:00:00+00:00,0.0
2024-01-25 19:00:00+00:00,0.0
2024-01-25 20:00:00+00:00,0.0
2024-01-26 14:00:00+00:00,0.0
2024-01-26 15:00:00+00:00,0.0
2024-01-26 16:00:00+00:00,0.0
2024-01-26 17:00:00+00:00,0.0
2024-01-26 18:00:00+00:00,0.0
2024-01-26 19:00:00+00:00,0.0
2024-01-26 20:00:00+00:00,0.0
2024-01-29 14:00:00+00:00,0.0
2024-01-29 15:00:00+00:00,0.0
2024-01-29 16:00:00+00:00,0.0
2024-01-29 17:00:00+00:00,0.0
2024-01-29 18:00:00+00:00,0.0
2024-01-29 19:00:00+00:00,0.0
2024-01-29 20:00:00+00:00,0.0
2024-01-30 14:00:00+00:00,0.0
2024-01-30 15:00:00+00:00,0.0
2024-01-30 16:00:00+00:00,0.0
2024-01-30 17:00:00+00:00,0.0
2024-01-30 18:00:00+00:00,0.0
2024-01-30 19:00:00+00:00,0.0
2024-01-30 20:00:00+00:00,0.0
2024-01-31 14:00:00+00:00,0.0
2024-01-31 15:00:00+00:00,0.0
2024-01-31 16:00:00+00:00,0.0
2024-01-31 17:00:00+00:00,0.0
2024-01-31 18:00:00+00:00,0.0
2024-01-31 19:00:00+00:00,0.0
2024-01-31 20:00:00+00:00,0.0
2024-02-01 14:00:00+00:00,0.0
2024-02-01 15:00:00+00:00,0.0
2024-02-01 16:00:00+00:00,0.0
2024-02-01 17:00:00+00:00,0.0
2024-02-01 18:00:00+00:00,0.0
2024-02-01 19:00:00+00:00,0.0
2024-02-01 20:00:00+00:00,0.0
2024-02-02 14:00:00+00:00,0.0
2024-02-02 15:00:00+00:00,0.0
2024-02-02 16:00:00+00:00,0.0
2024-02-02 17:00:00+00:00,0.0
2024-02-02 18:00:00+00:00,0.0
2024-02-02 19:00:00+00:00,0.0
2024-02-02 20:00:00+00:00,0.0
2024-02-05 14:00:00+00:00,0.0
2024-02-05 15:00:00+00:00,0.0
2024-02-05 16:00:00+00:00,0.0
2024-02-05 17:00:00+00:00,0.0
2024-02-05 18:00:00+00:00,0.0
2024-02-05 19:00:00+00:00,0.0
2024-02-05 20:00:00+00:00,0.0
2024-02-06 14:00:00+00:00,0.0
2024-02-06 15:00:00+00:00,0.0
2024-02-06 16:00:00+00:00,0.0
2024-02-06 17:00:00+00:00,0.0
2024-02-06 18:00:00+00:00,0.0
2024-02-06 19:00:00+00:00,0.0
2024-02-06 20:00:00+00:00,0.0
2024-02-07 14:00:00+00:00,0.0
2024-02-07 15:00:00+00:00,0.0
2024-02-07 16:00:00+00:00,0.0
2024-02-07 17:00:00+00:00,0.0
2024-02-07 18:00:00+00:00,0.0
2024-02-07 19:00:00+00:00,0.0
2024-02-07 20:00:00+00:00,0.0
2024-02-08 14:00:00+00:00,0.0
2024-02-08 15:00:00+00:00,0.0
2024-02-08 16:00:00+00:00,0.0
2024-02-08 17:00:00+00:00,0.0
2024-02-08 18:00:00+00:00,0.0
2024-02-08 19:00:00+00:00,0.0
2024-02-08 20:00:00+00:00,0.0
2024-02-09 14:00:00+00:00,0.0
2024-02-09 15:00:00+00:00,0.0
2024-02-09 16:00:00+00:00,0.0
2024-02-09 17:00:00+00:00,0.0
2024-02-09 18:00:00+00:00,0.0
2024-02-09 19:00:00+00:00,0.0
2024-02-09 20:00:00+00:00,0.0
2024-02-12 14:00:00+00:00,0.0
2024-02-12 15:00:00+00:00,0.0
2024-02-12 16:00:00+00:00,0.0
2024-02-12 17:00:00+00:00,0.0
2024-02-12 18:00:00+00:00,0.0
2024-02-12 19:00:00+00:00,0.0
2024-02-12 20:00:00+00:00,0.0
2024-02-13 14:00:00+00:00,0.0
2024-02-13 15:00:00+00:00,0.0
2024-02-13 16:00:00+00:00,0.0
2024-02-13 17:00:00+00:00,0.0
2024-02-13 18:00:00+00:00,0.0
2024-02-13 19:00:00+00:00,0.0
2024-02-13 20:00:00+00:00,0.0
2024-02-14 14:00:00+00:00,0.0
2024-02-14 15:00:00+00:00,0.0
2024-02-14 16:00:00+00:00,0.0
2024-02-14 17:00:00+00:00,0.0
2024-02-14 18:00:00+00:00,0.0
2024-02-14 19:00:00+00:00,0.0
2024-02-14 20:00:00+00:00,0.0
2024-02-15 14:00:00+00:00,0.0
2024-02-15 15:00:00+00:00,0.0
2024-02-15 16:00:00+00:00,0.0
2024-02-15 17:00:00+00:00,0.0
2024-02-15 18:00:00+00:00,0.0
2024-02-15 19:00:00+00:00,0.0
2024-02-15 20:00:00+00:00,0.0
2024-02-16 14:00:00+00:00,0.0
2024-02-16 15:00:00+00:00,0.0
2024-02-16 16:00:00+00:00,0.0
2024-02-16 17:00:00+00:00,0.0
2024-02-16 18:00:00+00:00,0.0
2024-02-16 19:00:00+00:00,0.0
2024-02-16 20:00:00+00:00,0.0
2024-02-20 14:00:00+00:00,0.0
2024-02-20 15:00:00+00:00,0.0
2024-02-20 16:00:00+00:00,0.0
2024-02-20 17:00:00+00:00,0.0
2024-02-20 18:00:00+00:00,0.0
2024-02-20 19:00:00+00:00,0.0
2024-02-20 20:00:00+00:00,0.0
2024-02-21 14:00:00+00:00,0.0
2024-02-21 15:00:00+00:00,0.0
2024-02-21 16:00:00+00:00,0.0
2024-02-21 17:00:00+00:00,0.0
2024-02-21 18:00:00+00:00,0.0
2024-02-21 19:00:00+00:00,0.0
2024-02-21 20:00:00+00:00,0.0
2024-02-22 14:00:00+00:00,0.0
2024-02-22 15:00:00+00:00,0.0
2024-02-22 16:00:00+00:00,0.0
2024-02-22 17:00:00+00:00,0.0
2024-02-22 18:00:00+00:00,0.0
2024-02-22 19:00:00+00:00,0.0
2024-02-22 20:00:00+00:00,0.0
2024-02-23 14:00:00+00:00,0.0
2024-02-23 15:00:00+00:00,0.0
2024-02-23 16:00:00+00:00,0.0
2024-02-23 17:00:00+00:00,0.0
2024-02-23 18:00:00+00:00,0.0
2024-02-23 19:00:00+00:00,0.0
2024-02-23 20:00:00+00:00,0.0
2024-02-26 14:00:00+00:00,0.0
2024-02-26 15:00:00+00:00,0.0
2024-02-26 16:00:00+00:00,0.0
2024-02-26 17:00:00+00:00,0.0
2024-02-26 18:00:00+00:00,0.0
2024-02-26 19:00:00+00:00,0.0
2024-02-26 20:00:00+00:00,0.0
2024-02-27 14:00:00+00:00,0.0
2024-02-27 15:00:00+00:00,0.0
2024-02-27 16:00:00+00:00,0.0
2024-02-27 17:00:00+00:00,0.0
2024-02-27 18:00:00+00:00,0.0
2024-02-27 19:00:00+00:00,0.0
2024-02-27 20:00:00+00:00,0.0
2024-02-28 14:00:00+00:00,0.0
2024-02-28 15:00:00+00:00,0.0
2024-02-28 16:00:00+00:00,0.0
2024-02-28 17:00:00+00:00,0.0
2024-02-28 18:00:00+00:00,0.0
2024-02-28 19:00:00+00:00,0.0
2024-02-28 20:00:00+00:00,0.0
2024-02-29 14:00:00+00:00,0.0
2024-02-29 15:00:00+00:00,0.0
2024-02-29 16:00:00+00:00,0.0
2024-02-29 17:00:00+00:00,0.0
2024-02-29 18:00:00+00:00,0.0
2024-02-29 19:00:00+00:00,0.0
2024-02-29 20:00:00+00:00,0.0
2024-03-01 14:00:00+00:00,0.0
2024-03-01 15:00:00+00:00,0.0
2024-03-01 16:00:00+00:00,0.0
2024-03-01 17:00:00+00:00,0.0
2024-03-01 18:00:00+00:00,0.0
2024-03-01 19:00:00+00:00,0.0
2024-03-01 20:00:00+00:00,0.0
2024-03-04 14:00:00+00:00,0.0
2024-03-04 15:00:00+00:00,0.0
2024-03-04 16:00:00+00:00,0.0
2024-03-04 17:00:00+00:00,0.0
2024-03-04 18:00:00+00:00,0.0
2024-03-04 19:00:00+00:00,0.0
2024-03-04 20:00:00+00:00,0.0
2024-03-05 14:00:00+00:00,0.0
2024-03-05 15:00:00+00:00,0.0
2024-03-05 16:00:00+00:00,0.0
2024-03-05 17:00:00+00:00,0.0
2024-03-05 18:00:00+00:00,0.0
2024-03-05 19:00:00+00:00,0.0
2024-03-05 20:00:00+00:00,0.0
2024-03-06 14:00:00+00:00,0.0
2024-03-06 15:00:00+00:00,0.0
2024-03-06 16:00:00+00:00,0.0
2024-03-06 17:00:00+00:00,0.0
2024-03-06 18:00:00+00:00,0.0
2024-03-06 19:00:00+00:00,0.0
2024-03-06 20:00:00+00:00,0.0
2024-03-07 14:00:00+00:00,0.0
2024-03-07 15:00:00+00:00,0.0
2024-03-07 16:00:00+00:00,0.0
2024-03-07 17:00:00+00:00,0.0
2024-03-07 18:00:00+00:00,0.0
2024-03-07 19:00:00+00:00,0.0
2024-03-07 20:00:00+00:00,0.0
2024-03-08 14:00:00+00:00,0.0
2024-03-08 15:00:00+00:00,0.0
2024-03-08 16:00:00+00:00,0.0
2024-03-08 17:00:00+00:00,0.0
2024-03-08 18:00:00+00:00,0.0
2024-03-08 19:00:00+00:00,0.0
2024-03-08 20:00:00+00:00,0.0
2024-03-11 13:00:00+00:00,0.0
2024-03-11 14:00:00+00:00,0.0
2024-03-11 15:00:00+00:00,0.0
2024-03-11 16:00:00+00:00,0.0
2024-03-11 17:00:00+00:00,0.0
2024-03-11 18:00:00+00:00,0.0
2024-03-11 19:00:00+00:00,0.0
2024-03-12 13:00:00+00:00,0.0
2024-03-12 14:00:00+00:00,0.0
2024-03-12 15:00:00+00:00,0.0
2024-03-12 16:00:00+00:00,0.0
2024-03-12 17:00:00+00:00,0.0
2024-03-12 18:00:00+00:00,0.0
2024-03-12 19:00:00+00:00,0.0
2024-03-13 13:00:00+00:00,0.0
2024-03-13 14:00:00+00:00,0.0
2024-03-13 15:00:00+00:00,0.0
2024-03-13 16:00:00+00:00,0.0
2024-03-13 17:00:00+00:00,0.0
2024-03-13 18:00:00+00:00,0.0
2024-03-13 19:00:00+00:00,0.0
2024-03-14 13:00:00+00:00,0.0
2024-03-14 14:00:00+00:00,0.0
2024-03-14 15:00:00+00:00,0.0
2024-03-14 16:00:00+00:00,0.0
2024-03-14 17:00:00+00:00,0.0
2024-03-14 18:00:00+00:00,0.0
2024-03-14 19:00:00+00:00,0.0
2024-03-15 13:00:00+00:00,0.0
2024-03-15 14:00:00+00:00,0.0
2024-03-15 15:00:00+00:00,0.0
2024-03-15 16:00:00+00:00,0.0
2024-03-15 17:00:00+00:00,0.0
2024-03-15 18:00:00+00:00,0.0
2024-03-15 19:00:00+00:00,0.0
2024-03-18 13:00:00+00:00,0.0
2024-03-18 14:00:00+00:00,0.0
2024-03-18 15:00:00+00:00,0.0
2024-03-18 16:00:00+00:00,0.0
2024-03-18 17:00:00+00:00,0.0
2024-03-18 18:00:00+00:00,0.0
2024-03-18 19:00:00+00:00,0.0
2024-03-19 13:00:00+00:00,0.0
2024-03-19 14:00:00+00:00,0.0
2024-03-19 15:00:00+00:00,0.0
2024-03-19 16:00:00+00:00,0.0
2024-03-19 17:00:00+00:00,0.0
2024-03-19 18:00:00+00:00,0.0
2024-03-19 19:00:00+00:00,0.0
2024-03-20 13:00:00+00:00,0.0
2024-03-20 14:00:00+00:00,0.0
2024-03-20 15:00:00+00:00,0.0
2024-03-20 16:00:00+00:00,0.0
2024-03-20 17:00:00+00:00,0.0
2024-03-20 18:00:00+00:00,0.0
2024-03-20 19:00:00+00:00,0.0
2024-03-21 13:00:00+00:00,0.0
2024-03-21 14:00:00+00:00,0.0
2024-03-21 15:00:00+00:00,0.0
2024-03-21 16:00:00+00:00,0.0
2024-03-21 17:00:00+00:00,0.0
2024-03-21 18:00:00+00:00,0.0
2024-03-21 19:00:00+00:00,0.0
2024-03-22 13:00:00+00:00,0.0
2024-03-22 14:00:00+00:00,0.0
2024-03-22 15:00:00+00:00,0.0
2024-03-22 16:00:00+00:00,0.0
2024-03-22 17:00:00+00:00,0.0
2024-03-22 18:00:00+00:00,0.0
2024-03-22 19:00:00+00:00,0.0
2024-03-25 13:00:00+00:00,0.0
2024-03-25 14:00:00+00:00,0.0
2024-03-25 15:00:00+00:00,0.0
2024-03-25 16:00:00+00:00,0.0
2024-03-25 17:00:00+00:00,0.0
2024-03-25 18:00:00+00:00,0.0
2024-03-25 19:00:00+00:00,0.0
2024-03-26 13:00:00+00:00,0.0
2024-03-26 14:00:00+00:00,0.0
2024-03-26 15:00:00+00:00,0.0
2024-03-26 16:00:00+00:00,0.0
2024-03-26 17:00:00+00:00,0.0
2024-03-26 18:00:00+00:00,0.0
2024-03-26 19:00:00+00:00,0.0
2024-03-27 13:00:00+00:00,0.0
2024-03-27 14:00:00+00:00,0.0
2024-03-27 15:00:00+00:00,0.0
2024-03-27 16:00:00+00:00,0.0
2024-03-27 17:00:00+00:00,0.0
2024-03-27 18:00:00+00:00,0.0
2024-03-27 19:00:00+00:00,0.0
2024-03-28 13:00:00+00:00,0.0
2024-03-28 14:00:00+00:00,0.0
2024-03-28 15:00:00+00:00,0.0
2024-03-28 16:00:00+00:00,0.0
2024-03-28 17:00:00+00:00,0.0
2024-03-28 18:00:00+00:00,0.0
2024-03-28 19:00:00+00:00,0.0
2024-04-01 13:00:00+00:00,0.0
2024-04-01 14:00:00+00:00,0.0
2024-04-01 15:00:00+00:00,0.0
2024-04-01 16:00:00+00:00,0.0
2024-04-01 17:00:00+00:00,0.0
2024-04-01 18:00:00+00:00,0.0
2024-04-01 19:00:00+00:00,0.0
2024-04-02 13:00:00+00:00,0.0
2024-04-02 14:00:00+00:00,0.0
2024-04-02 15:00:00+00:00,0.0
2024-04-02 16:00:00+00:00,0.0
2024-04-02 17:00:00+00:00,0.0
2024-04-02 18:00:00+00:00,0.0
2024-04-02 19:00:00+00:00,0.0
2024-04-03 13:00:00+00:00,0.0
2024-04-03 14:00:00+00:00,0.0
2024-04-03 15:00:00+00:00,0.0
2024-04-03 16:00:00+00:00,0.0
2024-04-03 17:00:00+00:00,0.0
2024-04-03 18:00:00+00:00,0.0
2024-04-03 19:00:00+00:00,0.0
2024-04-04 13:00:00+00:00,0.0
2024-04-04 14:00:00+00:00,0.0
2024-04-04 15:00:00+00:00,0.0
2024-04-04 16:00:00+00:00,0.0
2024-04-04 17:00:00+00:00,0.0
2024-04-04 18:00:00+00:00,0.0
2024-04-04 19:00:00+00:00,0.0
2024-04-05 13:00:00+00:00,0.0
2024-04-05 14:00:00+00:00,0.0
2024-04-05 15:00:00+00:00,0.0
2024-04-05 16:00:00+00:00,0.0
2024-04-05 17:00:00+00:00,0.0
2024-04-05 18:00:00+00:00,0.0
2024-04-05 19:00:00+00:00,0.0
2024-04-08 13:00:00+00:00,0.0
2024-04-08 14:00:00+00:00,0.0
2024-04-08 15:00:00+00:00,0.0
2024-04-08 16:00:00+00:00,0.0
2024-04-08 17:00:00+00:00,0.0
2024-04-08 18:00:00+00:00,0.0
2024-04-08 19:00:00+00:00,0.0
2024-04-09 13:00:00+00:00,0.0
2024-04-09 14:00:00+00:00,0.0
2024-04-09 15:00:00+00:00,0.0
2024-04-09 16:00:00+00:00,0.0
2024-04-09 17:00:00+00:00,0.0
2024-04-09 18:00:00+00:00,0.0
2024-04-09 19:00:00+00:00,0.0
2024-04-10 13:00:00+00:00,0.0
2024-04-10 14:00:00+00:00,0.0
2024-04-10 15:00:00+00:00,0.0
2024-04-10 16:00:00+00:00,0.0
2024-04-10 17:00:00+00:00,0.0
2024-04-10 18:00:00+00:00,0.0
2024-04-10 19:00:00+00:00,0.0
2024-04-11 13:00:00+00:00,0.0
2024-04-11 14:00:00+00:00,0.0
2024-04-11 15:00:00+00:00,0.0
2024-04-11 16:00:00+00:00,0.0
2024-04-11 17:00:00+00:00,0.0
2024-04-11 18:00:00+00:00,0.0
2024-04-11 19:00:00+00:00,0.0
2024-04-12 13:00:00+00:00,0.0
2024-04-12 14:00:00+00:00,0.0
2024-04-12 15:00:00+00:00,0.0
2024-04-12 16:00:00+00:00,0.0
2024-04-12 17:00:00+00:00,0.0
2024-04-12 18:00:00+00:00,0.0
2024-04-12 19:00:00+00:00,0.0
2024-04-15 13:00:00+00:00,0.0
2024-04-15 14:00:00+00:00,0.0
2024-04-15 15:00:00+00:00,0.0
2024-04-15 16:00:00+00:00,0.0
2024-04-15 17:00:00+00:00,0.0
2024-04-15 18:00:00+00:00,0.0
2024-04-15 19:00:00+00:00,0.0
2024-04-16 13:00:00+00:00,0.0
2024-04-16 14:00:00+00:00,0.0
2024-04-16 15:00:00+00:00,0.0
2024-04-16 16:00:00+00:00,0.0
2024-04-16 17:00:00+00:00,0.0
2024-04-16 18:00:00+00:00,0.0
2024-04-16 19:00:00+00:00,0.0
2024-04-17 13:00:00+00:00,0.0
2024-04-17 14:00:00+00:00,0.0
2024-04-17 15:00:00+00:00,0.0
2024-04-17 16:00:00+00:00,0.0
2024-04-17 17:00:00+00:00,0.0
2024-04-17 18:00:00+00:00,0.0
2024-04-17 19:00:00+00:00,0.0
2024-04-18 13:00:00+00:00,0.0
2024-04-18 14:00:00+00:00,0.0
2024-04-18 15:00:00+00:00,0.0
2024-04-18 16:00:00+00:00,0.0
2024-04-18 17:00:00+00:00,0.0
2024-04-18 18:00:00+00:00,0.0
2024-04-18 19:00:00+00:00,0.0
2024-04-19 13:00:00+00:00,0.0
2024-04-19 14:00:00+00:00,0.0
2024-04-19 15:00:00+00:00,0.0
2024-04-19 16:00:00+00:00,0.0
2024-04-19 17:00:00+00:00,0.0
2024-04-19 18:00:00+00:00,0.0
2024-04-19 19:00:00+00:00,0.0
2024-04-22 13:00:00+00:00,0.0
2024-04-22 14:00:00+00:00,0.0
2024-04-22 15:00:00+00:00,0.0
2024-04-22 16:00:00+00:00,0.0
2024-04-22 17:00:00+00:00,0.0
2024-04-22 18:00:00+00:00,0.0
2024-04-22 19:00:00+00:00,0.0
2024-04-23 13:00:00+00:00,0.0
2024-04-23 14:00:00+00:00,0.0
2024-04-23 15:00:00+00:00,0.0
2024-04-23 16:00:00+00:00,0.0
2024-04-23 17:00:00+00:00,0.0
2024-04-23 18:00:00+00:00,0.0
2024-04-23 19:00:00+00:00,0.0
2024-04-24 13:00:00+00:00,0.0
2024-04-24 14:00:00+00:00,0.0
2024-04-24 15:00:00+00:00,0.0
2024-04-24 16:00:00+00:00,0.0
2024-04-24 17:00:00+00:00,0.0
2024-04-24 18:00:00+00:00,0.0
2024-04-24 19:00:00+00:00,0.0
2024-04-25 13:00:00+00:00,0.0
2024-04-25 14:00:00+00:00,0.0
2024-04-25 15:00:00+00:00,0.0
2024-04-25 16:00:00+00:00,0.0
2024-04-25 17:00:00+00:00,0.0
2024-04-25 18:00:00+00:00,0.0
2024-04-25 19:00:00+00:00,0.0
2024-04-26 13:00:00+00:00,0.0
2024-04-26 14:00:00+00:00,0.0
2024-04-26 15:00:00+00:00,0.0
2024-04-26 16:00:00+00:00,0.0
2024-04-26 17:00:00+00:00,0.0
2024-04-26 18:00:00+00:00,0.0
2024-04-26 19:00:00+00:00,0.0
2024-04-29 13:00:00+00:00,0.0
2024-04-29 14:00:00+00:00,0.0
2024-04-29 15:00:00+00:00,0.0
2024-04-29 16:00:00+00:00,0.0
2024-04-29 17:00:00+00:00,0.0
2024-04-29 18:00:00+00:00,0.0
2024-04-29 19:00:00+00:00,0.0
2024-04-30 13:00:00+00:00,0.0
2024-04-30 14:00:00+00:00,0.0
2024-04-30 15:00:00+00:00,0.0
2024-04-30 16:00:00+00:00,0.0
2024-04-30 17:00:00+00:00,0.0
2024-04-30 18:00:00+00:00,0.0
2024-04-30 19:00:00+00:00,0.0
2024-05-01 13:00:00+00:00,0.0
2024-05-01 14:00:00+00:00,0.0
2024-05-01 15:00:00+00:00,0.0
2024-05-01 16:00:00+00:00,0.0
2024-05-01 17:00:00+00:00,0.0
2024-05-01 18:00:00+00:00,0.0
2024-05-01 19:00:00+00:00,0.0
2024-05-02 13:00:00+00:00,0.0
2024-05-02 14:00:00+00:00,0.0
2024-05-02 15:00:00+00:00,0.0
2024-05-02 16:00:00+00:00,0.0
2024-05-02 17:00:00+00:00,0.0
2024-05-02 18:00:00+00:00,0.0
2024-05-02 19:00:00+00:00,0.0
2024-05-03 13:00:00+00:00,0.0
2024-05-03 14:00:00+00:00,0.0
2024-05-03 15:00:00+00:00,0.0
2024-05-03 16:00:00+00:00,0.0
2024-05-03 17:00:00+00:00,0.0
2024-05-03 18:00:00+00:00,0.0
2024-05-03 19:00:00+00:00,0.0
2024-05-06 13:00:00+00:00,0.0
2024-05-06 14:00:00+00:00,0.0
2024-05-06 15:00:00+00:00,0.0
2024-05-06 16:00:00+00:00,0.0
2024-05-06 17:00:00+00:00,0.0
2024-05-06 18:00:00+00:00,0.0
2024-05-06 19:00:00+00:00,0.0
2024-05-07 13:00:00+00:00,0.0
2024-05-07 14:00:00+00:00,0.0
2024-05-07 15:00:00+00:00,0.0
2024-05-07 16:00:00+00:00,0.0
2024-05-07 17:00:00+00:00,0.0
2024-05-07 18:00:00+00:00,0.0
2024-05-07 19:00:00+00:00,0.0
2024-05-08 13:00:00+00:00,0.0
2024-05-08 14:00:00+00:00,0.0
2024-05-08 15:00:00+00:00,0.0
2024-05-08 16:00:00+00:00,0.0
2024-05-08 17:00:00+00:00,0.0
2024-05-08 18:00:00+00:00,0.0
2024-05-08 19:00:00+00:00,0.0
2024-05-09 13:00:00+00:00,0.0
2024-05-09 14:00:00+00:00,0.0
2024-05-09 15:00:00+00:00,0.0
2024-05-09 16:00:00+00:00,0.0
2024-05-09 17:00:00+00:00,0.0
2024-05-09 18:00:00+00:00,0.0
2024-05-09 19:00:00+00:00,0.0
2024-05-10 13:00:00+00:00,0.0
2024-05-10 14:00:00+00:00,0.0
2024-05-10 15:00:00+00:00,0.0
2024-05-10 16:00:00+00:00,0.0
2024-05-10 17:00:00+00:00,0.0
2024-05-10 18:00:00+00:00,0.0
2024-05-10 19:00:00+00:00,0.0
2024-05-13 13:00:00+00:00,0.0
2024-05-13 14:00:00+00:00,0.0
2024-05-13 15:00:00+00:00,0.0
2024-05-13 16:00:00+00:00,0.0
2024-05-13 17:00:00+00:00,0.0
2024-05-13 18:00:00+00:00,0.0
2024-05-13 19:00:00+00:00,0.0
2024-05-14 13:00:00+00:00,0.0
2024-05-14 14:00:00+00:00,0.0
2024-05-14 15:00:00+00:00,0.0
2024-05-14 16:00:00+00:00,0.0
2024-05-14 17:00:00+00:00,0.0
2024-05-14 18:00:00+00:00,0.0
2024-05-14 19:00:00+00:00,0.0
2024-05-15 13:00:00+00:00,0.0
2024-05-15 14:00:00+00:00,0.0
2024-05-15 15:00:00+00:00,0.0
2024-05-15 16:00:00+00:00,0.0
2024-05-15 17:00:00+00:00,0.0
2024-05-15 18:00:00+00:00,0.0
2024-05-15 19:00:00+00:00,0.0
2024-05-16 13:00:00+00:00,0.0
2024-05-16 14:00:00+00:00,0.0
2024-05-16 15:00:00+00:00,0.0
2024-05-16 16:00:00+00:00,0.0
2024-05-16 17:00:00+00:00,0.0
2024-05-16 18:00:00+00:00,0.0
2024-05-16 19:00:00+00:00,0.0
2024-05-17 13:00:00+00:00,0.0
2024-05-17 14:00:00+00:00,0.0
2024-05-17 15:00:00+00:00,0.0
2024-05-17 16:00:00+00:00,0.0
2024-05-17 17:00:00+00:00,0.0
2024-05-17 18:00:00+00:00,0.0
2024-05-17 19:00:00+00:00,0.0
2024-05-20 13:00:00+00:00,0.0
2024-05-20 14:00:00+00:00,0.0
2024-05-20 15:00:00+00:00,0.0
2024-05-20 16:00:00+00:00,0.0
2024-05-20 17:00:00+00:00,0.0
2024-05-20 18:00:00+00:00,0.0
2024-05-20 19:00:00+00:00,0.0
2024-05-21 13:00:00+00:00,0.0
2024-05-21 14:00:00+00:00,0.0
2024-05-21 15:00:00+00:00,0.0
2024-05-21 16:00:00+00:00,0.0
2024-05-21 17:00:00+00:00,0.0
2024-05-21 18:00:00+00:00,0.0
2024-05-21 19:00:00+00:00,0.0
2024-05-22 13:00:00+00:00,0.0
2024-05-22 14:00:00+00:00,0.0
2024-05-22 15:00:00+00:00,0.0
2024-05-22 16:00:00+00:00,0.0
2024-05-22 17:00:00+00:00,0.0
2024-05-22 18:00:00+00:00,0.0
2024-05-22 19:00:00+00:00,0.0
2024-05-23 13:00:00+00:00,0.0
2024-05-23 14:00:00+00:00,0.0
2024-05-23 15:00:00+00:00,0.0
2024-05-23 16:00:00+00:00,0.0
2024-05-23 17:00:00+00:00,0.0
2024-05-23 18:00:00+00:00,0.0
2024-05-23 19:00:00+00:00,0.0
2024-05-24 13:00:00+00:00,0.0
2024-05-24 14:00:00+00:00,0.0
2024-05-24 15:00:00+00:00,0.0
2024-05-24 16:00:00+00:00,0.0
2024-05-24 17:00:00+00:00,0.0
2024-05-24 18:00:00+00:00,0.0
2024-05-24 19:00:00+00:00,0.0
2024-05-28 13:00:00+00:00,0.0
2024-05-28 14:00:00+00:00,0.0
2024-05-28 15:00:00+00:00,0.0
2024-05-28 16:00:00+00:00,0.0
2024-05-28 17:00:00+00:00,0.0
2024-05-28 18:00:00+00:00,0.0
2024-05-28 19:00:00+00:00,0.0
2024-05-29 13:00:00+00:00,0.0
2024-05-29 14:00:00+00:00,0.0
2024-05-29 15:00:00+00:00,0.0
2024-05-29 16:00:00+00:00,0.0
2024-05-29 17:00:00+00:00,0.0
2024-05-29 18:00:00+00:00,0.0
2024-05-29 19:00:00+00:00,0.0
2024-05-30 13:00:00+00:00,0.0
2024-05-30 14:00:00+00:00,0.0
2024-05-30 15:00:00+00:00,0.0
2024-05-30 16:00:00+00:00,0.0
2024-05-30 17:00:00+00:00,0.0
2024-05-30 18:00:00+00:00,0.0
2024-05-30 19:00:00+00:00,0.0
2024-05-31 13:00:00+00:00,0.0
2024-05-31 14:00:00+00:00,0.0
2024-05-31 15:00:00+00:00,0.0
2024-05-31 16:00:00+00:00,0.0
2024-05-31 17:00:00+00:00,0.0
2024-05-31 18:00:00+00:00,0.0
2024-05-31 19:00:00+00:00,0.0
2024-06-03 13:00:00+00:00,0.0
2024-06-03 14:00:00+00:00,0.0
2024-06-03 15:00:00+00:00,0.0
2024-06-03 16:00:00+00:00,0.0
2024-06-03 17:00:00+00:00,0.0
2024-06-03 18:00:00+00:00,0.0
2024-06-03 19:00:00+00:00,0.0
2024-06-04 13:00:00+00:00,0.0
2024-06-04 14:00:00+00:00,0.0
2024-06-04 15:00:00+00:00,0.0
2024-06-04 16:00:00+00:00,0.0
2024-06-04 17:00:00+00:00,0.0
2024-06-04 18:00:00+00:00,0.0
2024-06-04 19:00:00+00:00,0.0
2024-06-05 13:00:00+00:00,0.0
2024-06-05 14:00:00+00:00,0.0
2024-06-05 17:00:00+00:00,0.0
2024-06-05 19:00:00+00:00,0.0
2024-06-06 13:00:00+00:00,0.0
2024-06-06 14:00:00+00:00,0.0
2024-06-07 13:00:00+00:00,0.0
2024-06-07 14:00:00+00:00,0.0
2024-06-07 15:00:00+00:00,0.0
2024-06-07 16:00:00+00:00,0.0
2024-06-07 17:00:00+00:00,0.0
2024-06-07 18:00:00+00:00,0.0
2024-06-07 19:00:00+00:00,0.0
2024-06-10 13:00:00+00:00,0.0
2024-06-10 14:00:00+00:00,0.0
2024-06-10 16:00:00+00:00,0.0
2024-06-10 17:00:00+00:00,0.0
2024-06-10 18:00:00+00:00,0.0
2024-06-10 19:00:00+00:00,0.0
2024-06-11 13:00:00+00:00,0.0
2024-06-11 14:00:00+00:00,0.0
2024-06-11 15:00:00+00:00,0.0
2024-06-11 17:00:00+00:00,0.0
2024-06-11 18:00:00+00:00,0.0
2024-06-11 19:00:00+00:00,0.0
2024-06-12 13:00:00+00:00,0.0
2024-06-12 15:00:00+00:00,0.0
2024-06-12 18:00:00+00:00,0.0
2024-06-12 19:00:00+00:00,0.0
2024-06-13 13:00:00+00:00,0.0
2024-06-13 14:00:00+00:00,0.0
2024-06-13 15:00:00+00:00,0.0
2024-06-13 17:00:00+00:00,0.0
2024-06-13 18:00:00+00:00,0.0
2024-06-13 19:00:00+00:00,0.0
2024-06-14 13:00:00+00:00,0.0
2024-06-14 14:00:00+00:00,0.0
2024-06-14 15:00:00+00:00,0.0
2024-06-14 17:00:00+00:00,0.0
2024-06-14 19:00:00+00:00,0.0
2024-06-17 13:00:00+00:00,0.0
2024-06-17 14:00:00+00:00,0.0
2024-06-17 16:00:00+00:00,0.0
2024-06-17 17:00:00+00:00,0.0
2024-06-17 18:00:00+00:00,0.0
2024-06-17 19:00:00+00:00,0.0
2024-06-18 15:00:00+00:00,0.0
2024-06-18 16:00:00+00:00,0.0
2024-06-18 17:00:00+00:00,0.0
2024-06-18 18:00:00+00:00,0.0
2024-06-18 19:00:00+00:00,0.0
2024-06-20 13:00:00+00:00,0.0
2024-06-20 15:00:00+00:00,0.0
2024-06-20 16:00:00+00:00,0.0
2024-06-20 17:00:00+00:00,0.0
2024-06-20 18:00:00+00:00,0.0
2024-06-21 13:00:00+00:00,0.0
2024-06-21 17:00:00+00:00,0.0
2024-06-21 19:00:00+00:00,0.0
2024-06-24 13:00:00+00:00,0.0
2024-06-24 14:00:00+00:00,0.0
2024-06-24 15:00:00+00:00,0.0
2024-06-24 19:00:00+00:00,0.0
2024-06-25 13:00:00+00:00,0.0
2024-06-25 14:00:00+00:00,0.0
2024-06-25 15:00:00+00:00,0.0
2024-06-25 16:00:00+00:00,0.0
2024-06-25 17:00:00+00:00,0.0
2024-06-25 19:00:00+00:00,0.0
2024-06-26 13:00:00+00:00,0.0
2024-06-26 14:00:00+00:00,0.0
2024-06-26 15:00:00+00:00,0.0
2024-06-26 16:00:00+00:00,0.0
2024-06-26 18:00:00+00:00,0.0
2024-06-26 19:00:00+00:00,0.0
2024-06-27 14:00:00+00:00,0.0
2024-06-27 18:00:00+00:00,0.0
2024-06-27 19:00:00+00:00,0.0
2024-06-28 13:00:00+00:00,0.0
2024-06-28 15:00:00+00:00,0.0
2024-06-28 17:00:00+00:00,0.0
2024-06-28 18:00:00+00:00,0.0
2024-06-28 19:00:00+00:00,0.0
2024-07-01 13:00:00+00:00,0.0
2024-07-01 14:00:00+00:00,0.0
2024-07-01 15:00:00+00:00,0.0
2024-07-01 17:00:00+00:00,0.0
2024-07-01 18:00:00+00:00,0.0
2024-07-02 13:00:00+00:00,0.0
2024-07-02 16:00:00+00:00,0.0
2024-07-02 18:00:00+00:00,0.0
2024-07-02 19:00:00+00:00,0.0
2024-07-03 13:00:00+00:00,0.0
2024-07-03 14:00:00+00:00,0.0
2024-07-03 15:00:00+00:00,0.0
2024-07-05 13:00:00+00:00,0.0
2024-07-05 15:00:00+00:00,0.0
2024-07-05 16:00:00+00:00,0.0
2024-07-05 18:00:00+00:00,0.0
2024-07-05 19:00:00+00:00,0.0
2024-07-08 13:00:00+00:00,0.0
2024-07-08 14:00:00+00:00,0.0
2024-07-08 15:00:00+00:00,0.0
2024-07-08 16:00:00+00:00,0.0
2024-07-08 17:00:00+00:00,0.0
2024-07-08 18:00:00+00:00,0.0
2024-07-08 19:00:00+00:00,0.0
2024-07-09 13:00:00+00:00,0.0
2024-07-09 14:00:00+00:00,0.0
2024-07-09 16:00:00+00:00,0.0
2024-07-09 17:00:00+00:00,0.0
2024-07-09 18:00:00+00:00,0.0
2024-07-10 13:00:00+00:00,0.0
2024-07-10 14:00:00+00:00,0.0
2024-07-10 15:00:00+00:00,0.0
2024-07-10 16:00:00+00:00,0.0
2024-07-10 17:00:00+00:00,0.0
2024-07-10 18:00:00+00:00,0.0
2024-07-10 19:00:00+00:00,0.0
2024-07-11 13:00:00+00:00,0.0
2024-07-11 14:00:00+00:00,0.0
2024-07-11 15:00:00+00:00,0.0
2024-07-11 16:00:00+00:00,0.0
2024-07-11 17:00:00+00:00,0.0
2024-07-11 18:00:00+00:00,0.0
2024-07-12 13:00:00+00:00,0.0
2024-07-12 14:00:00+00:00,0.0
2024-07-12 16:00:00+00:00,0.0
2024-07-15 14:00:00+00:00,0.0
2024-07-15 15:00:00+00:00,0.0
2024-07-15 16:00:00+00:00,0.0
2024-07-15 17:00:00+00:00,0.0
2024-07-15 18:00:00+00:00,0.0
2024-07-15 19:00:00+00:00,0.0
2024-07-16 13:00:00+00:00,0.0
2024-07-16 14:00:00+00:00,0.0
2024-07-16 17:00:00+00:00,0.0
2024-07-16 18:00:00+00:00,0.0
2024-07-16 19:00:00+00:00,0.0
2024-07-17 13:00:00+00:00,0.0
2024-07-17 14:00:00+00:00,0.0
2024-07-17 16:00:00+00:00,0.0
2024-07-17 17:00:00+00:00,0.0
2024-07-17 18:00:00+00:00,0.0
2024-07-17 19:00:00+00:00,0.0
2024-07-18 13:00:00+00:00,0.0
2024-07-18 14:00:00+00:00,0.0
2024-07-18 18:00:00+00:00,0.0
2024-07-18 19:00:00+00:00,0.0
2024-07-19 13:00:00+00:00,0.0
2024-07-19 14:00:00+00:00,0.0
2024-07-19 15:00:00+00:00,0.0
2024-07-19 17:00:00+00:00,0.0
2024-07-19 19:00:00+00:00,0.0
2024-07-22 13:00:00+00:00,0.0
2024-07-22 14:00:00+00:00,0.0
2024-07-22 15:00:00+00:00,0.0
2024-07-22 18:00:00+00:00,0.0
2024-07-22 19:00:00+00:00,0.0
2024-07-23 13:00:00+00:00,0.0
2024-07-23 15:00:00+00:00,0.0
2024-07-23 18:00:00+00:00,0.0
2024-07-23 19:00:00+00:00,0.0
2024-07-24 13:00:00+00:00,0.0
2024-07-24 14:00:00+00:00,0.0
2024-07-24 15:00:00+00:00,0.0
2024-07-24 16:00:00+00:00,0.0
2024-07-24 17:00:00+00:00,0.0
2024-07-24 18:00:00+00:00,0.0
2024-07-24 19:00:00+00:00,0.0
2024-07-25 13:00:00+00:00,0.0
2024-07-25 14:00:00+00:00,0.0
2024-07-25 15:00:00+00:00,0.0
2024-07-25 16:00:00+00:00,0.0
2024-07-25 17:00:00+00:00,0.0
2024-07-25 18:00:00+00:00,0.0
2024-07-25 19:00:00+00:00,0.0
2024-07-26 13:00:00+00:00,0.0
2024-07-26 14:00:00+00:00,0.0
2024-07-26 15:00:00+00:00,0.0
2024-07-26 16:00:00+00:00,0.0
2024-07-26 17:00:00+00:00,0.0
2024-07-26 18:00:00+00:00,0.0
2024-07-26 19:00:00+00:00,0.0
2024-07-29 13:00:00+00:00,0.0
2024-07-29 14:00:00+00:00,0.0
2024-07-29 15:00:00+00:00,0.0
2024-07-29 16:00:00+00:00,0.0
2024-07-29 18:00:00+00:00,0.0
2024-07-30 13:00:00+00:00,0.0
2024-07-30 14:00:00+00:00,0.0
2024-07-30 15:00:00+00:00,0.0
2024-07-30 16:00:00+00:00,0.0
2024-07-30 17:00:00+00:00,0.0
2024-07-30 18:00:00+00:00,0.0
2024-07-30 19:00:00+00:00,0.0
2024-07-31 13:00:00+00:00,0.0
2024-07-31 14:00:00+00:00,0.0
2024-07-31 16:00:00+00:00,0.0
2024-07-31 17:00:00+00:00,0.0
2024-07-31 18:00:00+00:00,0.0
2024-07-31 19:00:00+00:00,0.0
2024-08-01 13:00:00+00:00,-361.86396190410437
2024-08-01 14:00:00+00:00,-381.9960464549139
2024-08-01 15:00:00+00:00,-354.4054548257243
2024-08-01 16:00:00+00:00,-301.8765274100222
2024-08-01 17:00:00+00:00,-327.16523777904916
2024-08-01 18:00:00+00:00,-359.7196749841096
2024-08-01 19:00:00+00:00,-316.494444314033
2024-08-02 13:00:00+00:00,-341.3631142431245
2024-08-02 14:00:00+00:00,-333.06048433713084
2024-08-02 15:00:00+00:00,-289.02774550526027
2024-08-02 16:00:00+00:00,-356.84202711686606
2024-08-02 17:00:00+00:00,-337.94983109880013
2024-08-02 19:00:00+00:00,-362.95086556113995
2024-08-05 13:00:00+00:00,-495.3223509827503
2024-08-05 14:00:00+00:00,-479.1658479364248
2024-08-05 15:00:00+00:00,-488.2201406954285
2024-08-05 16:00:00+00:00,-524.1305062065134
2024-08-05 17:00:00+00:00,-539.1811299340427
2024-08-05 18:00:00+00:00,-561.3871328795274
2024-08-05 19:00:00+00:00,-568.6909031450255
2024-08-06 13:00:00+00:00,-449.11776941200065
2024-08-06 14:00:00+00:00,-533.4511840527813
2024-08-06 15:00:00+00:00,-536.0735007265807
2024-08-06 16:00:00+00:00,-529.6837192105875
2024-08-06 17:00:00+00:00,-517.2486378530705
2024-08-06 18:00:00+00:00,-537.6484299988768
2024-08-06 19:00:00+00:00,-571.1718324400358
2024-08-07 13:00:00+00:00,-491.5985726674635
2024-08-07 14:00:00+00:00,-502.30421730476996
2024-08-07 15:00:00+00:00,-564.9937512093685
2024-08-07 16:00:00+00:00,-584.8520473609808
2024-08-07 17:00:00+00:00,-609.7779168283805
2024-08-07 19:00:00+00:00,-615.1697200996164
2024-08-08 13:00:00+00:00,-564.8071488588229
2024-08-08 14:00:00+00:00,-527.3708635890056
2024-08-08 15:00:00+00:00,-528.0775697304974
2024-08-08 16:00:00+00:00,-531.1696515992403
2024-08-08 17:00:00+00:00,-551.0464807241973
2024-08-08 18:00:00+00:00,-541.795832377133
2024-08-08 19:00:00+00:00,-572.3528294123071
2024-08-09 13:00:00+00:00,-538.1400283828689
2024-08-09 14:00:00+00:00,-518.1512592988796
2024-08-09 15:00:00+00:00,-539.886567610164
2024-08-09 16:00:00+00:00,-525.7820342356741
2024-08-09 17:00:00+00:00,-544.6526686005307
2024-08-09 18:00:00+00:00,-533.2542652442326
2024-08-12 14:00:00+00:00,-557.7271347002774
2024-08-12 16:00:00+00:00,-524.7962773080353
2024-08-12 17:00:00+00:00,-538.5748742131925
2024-08-12 18:00:00+00:00,-536.9613465682618
2024-08-12 19:00:00+00:00,-544.1420945547792
2024-08-13 13:00:00+00:00,-586.056087089847
2024-08-13 16:00:00+00:00,-559.8657409047453
2024-08-13 18:00:00+00:00,-538.955258733898
2024-08-13 19:00:00+00:00,-564.0719247368307
2024-08-14 13:00:00+00:00,-557.6116667369943
2024-08-14 14:00:00+00:00,-561.966351723265
2024-08-14 15:00:00+00:00,-551.3552771720978
2024-08-14 18:00:00+00:00,-518.882145757971
2024-08-14 19:00:00+00:00,-534.7660614296067
2024-08-15 13:00:00+00:00,-457.10399451203284
2024-08-15 14:00:00+00:00,-447.3684806159457
2024-08-15 16:00:00+00:00,-423.7321796718176
2024-08-15 17:00:00+00:00,-428.8142510570507
2024-08-15 18:00:00+00:00,-438.3217547461871
2024-08-16 13:00:00+00:00,-485.0749580883806
2024-08-16 14:00:00+00:00,-493.8799971624759
2024-08-16 15:00:00+00:00,-498.74784218594715
2024-08-16 17:00:00+00:00,-500.26610541689706
2024-08-16 18:00:00+00:00,-493.8132804525194
2024-08-16 19:00:00+00:00,-467.04465200932924
2024-08-19 13:00:00+00:00,-513.3888510704073
2024-08-19 14:00:00+00:00,-492.0010694883173
2024-08-19 19:00:00+00:00,-503.41012005141533
2024-08-20 13:00:00+00:00,-508.69247037590907
2024-08-20 15:00:00+00:00,-494.69644863741007
2024-08-20 17:00:00+00:00,-482.2095861213099
2024-08-20 18:00:00+00:00,-457.8189254461844
2024-08-21 13:00:00+00:00,-383.0242232187097
2024-08-21 14:00:00+00:00,-378.9657212491952
2024-08-21 15:00:00+00:00,-382.76484071027886
2024-08-21 16:00:00+00:00,-360.7485767537313
2024-08-21 17:00:00+00:00,-361.70437300281947
2024-08-21 19:00:00+00:00,-356.5764760838759
2024-08-22 13:00:00+00:00,-360.1997440635113
2024-08-22 14:00:00+00:00,-360.6392310634649
2024-08-22 15:00:00+00:00,-345.3125152626981
2024-08-22 17:00:00+00:00,-333.7374274606006
2024-08-22 19:00:00+00:00,-337.4911683726153
2024-08-23 13:00:00+00:00,-303.5671007964591
2024-08-23 14:00:00+00:00,-272.24047545164603
2024-08-23 15:00:00+00:00,-321.3137016614883
2024-08-23 16:00:00+00:00,-324.08683262522146
2024-08-23 17:00:00+00:00,-336.2689870362621
2024-08-23 18:00:00+00:00,-329.0498042544197
2024-08-26 13:00:00+00:00,-268.7052749163995
2024-08-26 14:00:00+00:00,-293.4662672637743
2024-08-26 15:00:00+00:00,-290.72147895793717
2024-08-26 18:00:00+00:00,-288.046827407779
2024-08-26 19:00:00+00:00,-296.0076837392492
2024-08-27 13:00:00+00:00,-251.64375862464286
2024-08-27 14:00:00+00:00,-259.17582250442433
2024-08-27 16:00:00+00:00,-265.96996901429065
2024-08-27 19:00:00+00:00,-280.18765519440194
2024-08-28 16:00:00+00:00,-240.10181630920567
2024-08-28 17:00:00+00:00,-275.53007841357345
2024-08-28 19:00:00+00:00,-249.01873972354932
2024-08-29 13:00:00+00:00,-212.72231440338643
2024-08-29 14:00:00+00:00,-198.81221567532083
2024-08-29 15:00:00+00:00,-193.16207053147474
2024-08-29 16:00:00+00:00,-190.68646723122527
2024-08-29 17:00:00+00:00,-188.92389848153573
2024-08-29 19:00:00+00:00,-194.97571353835724
2024-08-30 13:00:00+00:00,-124.65606260038194
2024-08-30 14:00:00+00:00,-156.9002603177353
2024-08-30 16:00:00+00:00,-151.85194779027975
2024-08-30 19:00:00+00:00,-108.28361774228247
2024-09-03 13:00:00+00:00,-54.801045657842955
2024-09-03 14:00:00+00:00,-13.604686284221799
2024-09-03 16:00:00+00:00,-100.11079029170295
2024-09-03 17:00:00+00:00,-113.3627796742452
2024-09-03 19:00:00+00:00,-125.16353649490404
2024-09-04 13:00:00+00:00,-145.58816161434893
2024-09-04 14:00:00+00:00,-165.10942004399428
2024-09-04 19:00:00+00:00,-217.4827292510762
2024-09-05 13:00:00+00:00,-284.632323139548
2024-09-05 14:00:00+00:00,-310.05580946714394
2024-09-05 15:00:00+00:00,-304.03001762264046
2024-09-05 16:00:00+00:00,-294.1993762925733
2024-09-05 17:00:00+00:00,-281.83079485359065
2024-09-05 19:00:00+00:00,-280.04521026901875
2024-09-06 13:00:00+00:00,-259.71890913695523
2024-09-06 14:00:00+00:00,-264.0451360577385
2024-09-06 16:00:00+00:00,-226.30342034338128
2024-09-06 18:00:00+00:00,-200.85258242308515
2024-09-06 19:00:00+00:00,-202.75363497094114
2024-09-09 13:00:00+00:00,-165.2415376570708
2024-09-09 14:00:00+00:00,-151.567014575411
2024-09-09 15:00:00+00:00,-145.92109983425917
2024-09-09 17:00:00+00:00,-166.42638908616001
2024-09-09 18:00:00+00:00,-170.36986898711103
2024-09-09 19:00:00+00:00,-162.75641417707513
2024-09-10 13:00:00+00:00,-226.49972858997725
2024-09-10 14:00:00+00:00,-194.6107575435404
2024-09-10 15:00:00+00:00,-210.30395669405408
2024-09-10 17:00:00+00:00,-178.68898496558933
2024-09-10 18:00:00+00:00,-164.01471515109017
2024-09-10 19:00:00+00:00,-180.70969966171333
2024-09-11 13:00:00+00:00,-296.92109841396496
2024-09-11 14:00:00+00:00,-255.70981935913125
2024-09-11 15:00:00+00:00,-252.39235609434223
2024-09-11 16:00:00+00:00,-230.8105089841741
2024-09-11 19:00:00+00:00,-219.92080607345562
2024-09-12 13:00:00+00:00,-281.23215336344913
2024-09-12 14:00:00+00:00,-292.87985774612133
2024-09-12 15:00:00+00:00,-279.7594025353511
2024-09-12 16:00:00+00:00,-253.50094849473572
2024-09-12 17:00:00+00:00,-250.60485599528647
2024-09-12 18:00:00+00:00,-249.8879969731027
2024-09-12 19:00:00+00:00,-238.64769056039682
2024-09-13 13:00:00+00:00,-186.4124086013927
2024-09-13 14:00:00+00:00,-186.13796229877693
2024-09-13 15:00:00+00:00,-196.45733620822995
2024-09-16 13:00:00+00:00,-180.63372404034973
2024-09-16 14:00:00+00:00,-190.70763122216886
2024-09-16 15:00:00+00:00,-175.9839124939936
2024-09-16 16:00:00+00:00,-181.403950338396
2024-09-16 17:00:00+00:00,-186.41599222442574
2024-09-16 18:00:00+00:00,-203.42738154100954
2024-09-16 19:00:00+00:00,-194.4754433770618
2024-09-17 13:00:00+00:00,-159.54579589898717
2024-09-17 14:00:00+00:00,-167.41170094733354
2024-09-17 16:00:00+00:00,-180.97842333448924
2024-09-17 18:00:00+00:00,-198.87573040472427
2024-09-17 19:00:00+00:00,-184.64811483624308
2024-09-18 13:00:00+00:00,-159.96018496416406
2024-09-18 14:00:00+00:00,-147.42992295855328
2024-09-18 15:00:00+00:00,-154.9340320783235
2024-09-18 17:00:00+00:00,-163.02618282290052
2024-09-18 18:00:00+00:00,-164.2910530545744
2024-09-18 19:00:00+00:00,-194.01749602778995
2024-09-19 13:00:00+00:00,-112.11967289460374
2024-09-19 14:00:00+00:00,-117.33365640128963
2024-09-19 15:00:00+00:00,-90.60428423415198
2024-09-19 17:00:00+00:00,-85.93346527570515
2024-09-19 18:00:00+00:00,-114.39586365873349
2024-09-20 13:00:00+00:00,-257.26531482558397
2024-09-20 18:00:00+00:00,-208.19287196942494
2024-09-20 19:00:00+00:00,-184.28146681926245
2024-09-23 13:00:00+00:00,-205.5219801931552
2024-09-23 14:00:00+00:00,-190.33477383377743
2024-09-23 15:00:00+00:00,-211.5818438917825
2024-09-23 16:00:00+00:00,-198.28912082259782
2024-09-23 18:00:00+00:00,-203.31825934306423
2024-09-23 19:00:00+00:00,-203.83500300329752
2024-09-24 13:00:00+00:00,-198.1247032607594
2024-09-24 14:00:00+00:00,-242.22536735294642
2024-09-24 15:00:00+00:00,-197.3404911212509
2024-09-24 18:00:00+00:00,-201.40370635735192
2024-09-24 19:00:00+00:00,-192.14247071849886
2024-09-25 13:00:00+00:00,-179.43243388024166
2024-09-25 14:00:00+00:00,-189.75555499003818
2024-09-25 16:00:00+00:00,-203.54577403536032
2024-09-25 18:00:00+00:00,-194.16217629941497
2024-09-26 13:00:00+00:00,-4.0186209822742285
2024-09-26 14:00:00+00:00,36.805355170982594
2024-09-26 15:00:00+00:00,68.06129311317454
2024-09-26 16:00:00+00:00,77.4375425842743
2024-09-26 17:00:00+00:00,81.60133398841275
2024-09-26 18:00:00+00:00,112.56495007156656
2024-09-26 19:00:00+00:00,112.56495007156656
2024-09-27 13:00:00+00:00,112.56495007156656
2024-09-27 14:00:00+00:00,112.56495007156656
2024-09-27 16:00:00+00:00,112.56495007156656
2024-09-27 17:00:00+00:00,112.56495007156656
2024-09-27 18:00:00+00:00,112.56495007156656
2024-09-27 19:00:00+00:00,112.56495007156656
2024-09-30 13:00:00+00:00,112.56495007156656
2024-09-30 14:00:00+00:00,112.56495007156656
2024-09-30 15:00:00+00:00,112.56495007156656
2024-09-30 16:00:00+00:00,112.56495007156656
2024-09-30 17:00:00+00:00,112.56495007156656
2024-09-30 19:00:00+00:00,112.56495007156656
2024-10-01 13:00:00+00:00,112.56495007156656
2024-10-01 14:00:00+00:00,112.56495007156656
2024-10-01 15:00:00+00:00,112.56495007156656
2024-10-01 16:00:00+00:00,112.56495007156656
2024-10-01 17:00:00+00:00,112.56495007156656
2024-10-01 19:00:00+00:00,112.56495007156656
2024-10-02 13:00:00+00:00,112.56495007156656
2024-10-02 14:00:00+00:00,112.56495007156656
2024-10-02 15:00:00+00:00,112.56495007156656
2024-10-02 16:00:00+00:00,112.56495007156656
2024-10-02 18:00:00+00:00,112.56495007156656
2024-10-02 19:00:00+00:00,112.56495007156656
2024-10-03 13:00:00+00:00,112.56495007156656
2024-10-03 19:00:00+00:00,112.56495007156656
2024-10-04 13:00:00+00:00,112.56495007156656
2024-10-04 15:00:00+00:00,112.56495007156656
2024-10-04 16:00:00+00:00,112.56495007156656
2024-10-04 17:00:00+00:00,112.56495007156656
2024-10-04 18:00:00+00:00,112.56495007156656
2024-10-04 19:00:00+00:00,112.56495007156656
2024-10-07 13:00:00+00:00,112.56495007156656
2024-10-07 14:00:00+00:00,112.56495007156656
2024-10-07 16:00:00+00:00,112.56495007156656
2024-10-07 18:00:00+00:00,112.56495007156656
2024-10-08 13:00:00+00:00,112.56495007156656
2024-10-08 14:00:00+00:00,112.56495007156656
2024-10-08 15:00:00+00:00,112.56495007156656
2024-10-08 16:00:00+00:00,112.56495007156656
2024-10-08 17:00:00+00:00,112.56495007156656
2024-10-09 13:00:00+00:00,112.56495007156656
2024-10-09 14:00:00+00:00,112.56495007156656
2024-10-09 16:00:00+00:00,112.56495007156656
2024-10-10 13:00:00+00:00,112.56495007156656
2024-10-10 14:00:00+00:00,112.56495007156656
2024-10-10 15:00:00+00:00,112.56495007156656
2024-10-10 16:00:00+00:00,112.56495007156656
2024-10-11 13:00:00+00:00,112.56495007156656
2024-10-11 17:00:00+00:00,112.56495007156656
2024-10-14 13:00:00+00:00,112.56495007156656
2024-10-14 14:00:00+00:00,112.56495007156656
2024-10-14 15:00:00+00:00,112.56495007156656
2024-10-14 18:00:00+00:00,112.56495007156656
2024-10-14 19:00:00+00:00,112.56495007156656
2024-10-15 13:00:00+00:00,112.56495007156656
2024-10-15 14:00:00+00:00,112.56495007156656
2024-10-15 16:00:00+00:00,112.56495007156656
2024-10-15 17:00:00+00:00,112.56495007156656
2024-10-15 18:00:00+00:00,112.56495007156656
2024-10-16 13:00:00+00:00,112.56495007156656
2024-10-16 14:00:00+00:00,112.56495007156656
2024-10-16 15:00:00+00:00,112.56495007156656
2024-10-16 17:00:00+00:00,112.56495007156656
2024-10-16 19:00:00+00:00,112.56495007156656
2024-10-17 14:00:00+00:00,112.56495007156656
2024-10-17 17:00:00+00:00,112.56495007156656
2024-10-17 19:00:00+00:00,112.56495007156656
2024-10-18 13:00:00+00:00,112.56495007156656
2024-10-18 14:00:00+00:00,112.56495007156656
2024-10-18 15:00:00+00:00,112.56495007156656
2024-10-18 16:00:00+00:00,112.56495007156656
2024-10-18 18:00:00+00:00,112.56495007156656
2024-10-18 19:00:00+00:00,112.56495007156656
2024-10-21 14:00:00+00:00,112.56495007156656
2024-10-21 15:00:00+00:00,112.56495007156656
2024-10-21 16:00:00+00:00,112.56495007156656
2024-10-21 17:00:00+00:00,112.56495007156656
2024-10-21 18:00:00+00:00,112.56495007156656
2024-10-21 19:00:00+00:00,112.56495007156656
2024-10-22 13:00:00+00:00,112.56495007156656
2024-10-22 14:00:00+00:00,112.56495007156656
2024-10-22 16:00:00+00:00,112.56495007156656
2024-10-22 17:00:00+00:00,112.56495007156656
2024-10-22 18:00:00+00:00,112.56495007156656
2024-10-22 19:00:00+00:00,112.56495007156656
2024-10-23 13:00:00+00:00,112.56495007156656
2024-10-23 14:00:00+00:00,112.56495007156656
2024-10-23 15:00:00+00:00,112.56495007156656
2024-10-23 16:00:00+00:00,112.56495007156656
2024-10-23 17:00:00+00:00,112.56495007156656
2024-10-23 18:00:00+00:00,112.56495007156656
2024-10-23 19:00:00+00:00,112.56495007156656
2024-10-24 13:00:00+00:00,112.56495007156656
2024-10-24 14:00:00+00:00,112.56495007156656
2024-10-24 15:00:00+00:00,112.56495007156656
2024-10-24 16:00:00+00:00,112.56495007156656
2024-10-24 17:00:00+00:00,112.56495007156656
2024-10-24 18:00:00+00:00,112.56495007156656
2024-10-25 13:00:00+00:00,112.56495007156656
2024-10-25 15:00:00+00:00,112.56495007156656
2024-10-25 16:00:00+00:00,112.56495007156656
2024-10-25 19:00:00+00:00,112.56495007156656
2024-10-28 13:00:00+00:00,112.56495007156656
2024-10-28 14:00:00+00:00,112.56495007156656
2024-10-28 15:00:00+00:00,112.56495007156656
2024-10-28 16:00:00+00:00,112.56495007156656
2024-10-28 17:00:00+00:00,112.56495007156656
2024-10-28 18:00:00+00:00,112.56495007156656
2024-10-28 19:00:00+00:00,112.56495007156656
2024-10-29 13:00:00+00:00,112.56495007156656
2024-10-29 14:00:00+00:00,112.56495007156656
2024-10-29 15:00:00+00:00,112.56495007156656
2024-10-29 16:00:00+00:00,112.56495007156656
2024-10-29 17:00:00+00:00,112.56495007156656
2024-10-29 18:00:00+00:00,112.56495007156656
2024-10-29 19:00:00+00:00,112.56495007156656
2024-10-30 13:00:00+00:00,112.56495007156656
2024-10-30 14:00:00+00:00,112.56495007156656
2024-10-30 15:00:00+00:00,112.56495007156656
2024-10-30 16:00:00+00:00,112.56495007156656
2024-10-30 17:00:00+00:00,112.56495007156656
2024-10-30 18:00:00+00:00,112.56495007156656
2024-10-30 19:00:00+00:00,112.56495007156656
2024-10-31 13:00:00+00:00,112.56495007156656
2024-10-31 15:00:00+00:00,112.56495007156656
2024-10-31 18:00:00+00:00,112.56495007156656
2024-10-31 19:00:00+00:00,112.56495007156656
2024-11-01 13:00:00+00:00,112.56495007156656
2024-11-01 15:00:00+00:00,112.56495007156656
2024-11-01 17:00:00+00:00,112.56495007156656
2024-11-01 18:00:00+00:00,112.56495007156656
2024-11-01 19:00:00+00:00,112.56495007156656
2024-11-04 14:00:00+00:00,112.56495007156656
2024-11-04 16:00:00+00:00,112.56495007156656
2024-11-04 18:00:00+00:00,112.56495007156656
2024-11-04 19:00:00+00:00,112.56495007156656
2024-11-04 20:00:00+00:00,112.56495007156656
2024-11-05 14:00:00+00:00,112.56495007156656
2024-11-05 15:00:00+00:00,112.56495007156656
2024-11-05 16:00:00+00:00,112.56495007156656
2024-11-05 18:00:00+00:00,112.56495007156656
2024-11-05 19:00:00+00:00,112.56495007156656
2024-11-05 20:00:00+00:00,112.56495007156656
2024-11-06 14:00:00+00:00,112.56495007156656
2024-11-06 15:00:00+00:00,112.56495007156656
2024-11-06 16:00:00+00:00,112.56495007156656
2024-11-06 17:00:00+00:00,112.56495007156656
2024-11-06 19:00:00+00:00,112.56495007156656
2024-11-06 20:00:00+00:00,112.56495007156656
2024-11-07 14:00:00+00:00,112.56495007156656
2024-11-07 15:00:00+00:00,112.56495007156656
2024-11-07 17:00:00+00:00,112.56495007156656
2024-11-07 18:00:00+00:00,112.56495007156656
2024-11-07 19:00:00+00:00,112.56495007156656
2024-11-08 14:00:00+00:00,112.56495007156656
2024-11-08 15:00:00+00:00,112.56495007156656
2024-11-08 16:00:00+00:00,112.56495007156656
2024-11-08 17:00:00+00:00,112.56495007156656
2024-11-08 18:00:00+00:00,112.56495007156656
2024-11-08 19:00:00+00:00,112.56495007156656
2024-11-08 20:00:00+00:00,112.56495007156656
2024-11-11 14:00:00+00:00,112.56495007156656
2024-11-11 15:00:00+00:00,112.56495007156656
2024-11-11 18:00:00+00:00,112.56495007156656
2024-11-11 19:00:00+00:00,112.56495007156656
2024-11-11 20:00:00+00:00,112.56495007156656
2024-11-12 14:00:00+00:00,112.56495007156656
2024-11-12 15:00:00+00:00,112.56495007156656
2024-11-12 16:00:00+00:00,112.56495007156656
2024-11-12 17:00:00+00:00,112.56495007156656
2024-11-12 18:00:00+00:00,112.56495007156656
2024-11-12 19:00:00+00:00,112.56495007156656
2024-11-12 20:00:00+00:00,112.56495007156656
2024-11-13 14:00:00+00:00,112.56495007156656
2024-11-13 15:00:00+00:00,112.56495007156656
2024-11-13 17:00:00+00:00,112.56495007156656
2024-11-13 18:00:00+00:00,112.56495007156656
2024-11-13 19:00:00+00:00,112.56495007156656
2024-11-13 20:00:00+00:00,112.56495007156656
2024-11-14 15:00:00+00:00,112.56495007156656
2024-11-14 16:00:00+00:00,112.56495007156656
2024-11-14 17:00:00+00:00,112.56495007156656
2024-11-14 18:00:00+00:00,112.56495007156656
2024-11-14 19:00:00+00:00,112.56495007156656
2024-11-14 20:00:00+00:00,112.56495007156656
2024-11-15 14:00:00+00:00,112.56495007156656
2024-11-15 15:00:00+00:00,112.56495007156656
2024-11-15 16:00:00+00:00,112.56495007156656
2024-11-15 17:00:00+00:00,112.56495007156656
2024-11-15 18:00:00+00:00,112.56495007156656
2024-11-15 19:00:00+00:00,112.56495007156656
2024-11-15 20:00:00+00:00,112.56495007156656
2024-11-18 14:00:00+00:00,112.56495007156656
2024-11-18 15:00:00+00:00,112.56495007156656
2024-11-18 17:00:00+00:00,112.56495007156656
2024-11-18 18:00:00+00:00,112.56495007156656
2024-11-18 19:00:00+00:00,112.56495007156656
2024-11-18 20:00:00+00:00,112.56495007156656
2024-11-19 14:00:00+00:00,112.56495007156656
2024-11-19 15:00:00+00:00,112.56495007156656
2024-11-19 16:00:00+00:00,112.56495007156656
2024-11-19 17:00:00+00:00,112.56495007156656
2024-11-19 18:00:00+00:00,112.56495007156656
2024-11-19 19:00:00+00:00,112.56495007156656
2024-11-19 20:00:00+00:00,112.56495007156656
2024-11-20 14:00:00+00:00,112.56495007156656
2024-11-20 15:00:00+00:00,112.56495007156656
2024-11-20 16:00:00+00:00,112.56495007156656
2024-11-20 17:00:00+00:00,112.56495007156656
2024-11-20 18:00:00+00:00,112.56495007156656
2024-11-20 19:00:00+00:00,112.56495007156656
2024-11-20 20:00:00+00:00,112.56495007156656
2024-11-21 14:00:00+00:00,112.56495007156656
2024-11-21 15:00:00+00:00,112.56495007156656
2024-11-21 16:00:00+00:00,112.56495007156656
2024-11-21 17:00:00+00:00,112.56495007156656
2024-11-21 18:00:00+00:00,112.56495007156656
2024-11-21 19:00:00+00:00,112.56495007156656
2024-11-21 20:00:00+00:00,112.56495007156656
2024-11-22 14:00:00+00:00,112.56495007156656
2024-11-22 15:00:00+00:00,112.56495007156656
2024-11-22 16:00:00+00:00,112.56495007156656
2024-11-22 18:00:00+00:00,112.56495007156656
2024-11-22 19:00:00+00:00,112.56495007156656
2024-11-25 14:00:00+00:00,112.56495007156656
2024-11-25 15:00:00+00:00,112.56495007156656
2024-11-25 16:00:00+00:00,112.56495007156656
2024-11-25 17:00:00+00:00,112.56495007156656
2024-11-25 18:00:00+00:00,112.56495007156656
2024-11-25 19:00:00+00:00,112.56495007156656
2024-11-25 20:00:00+00:00,112.56495007156656
2024-11-26 14:00:00+00:00,112.56495007156656
2024-11-26 15:00:00+00:00,112.56495007156656
2024-11-26 16:00:00+00:00,112.56495007156656
2024-11-26 17:00:00+00:00,112.56495007156656
2024-11-26 18:00:00+00:00,112.56495007156656
2024-11-26 19:00:00+00:00,112.56495007156656
2024-11-26 20:00:00+00:00,112.56495007156656
2024-11-27 14:00:00+00:00,112.56495007156656
2024-11-27 15:00:00+00:00,112.56495007156656
2024-11-27 16:00:00+00:00,112.56495007156656
2024-11-27 17:00:00+00:00,112.56495007156656
2024-11-27 18:00:00+00:00,112.56495007156656
2024-11-27 19:00:00+00:00,112.56495007156656
2024-11-27 20:00:00+00:00,112.56495007156656
2024-11-29 14:00:00+00:00,112.56495007156656
2024-11-29 15:00:00+00:00,112.56495007156656
2024-11-29 16:00:00+00:00,112.56495007156656
2024-12-02 14:00:00+00:00,112.56495007156656
2024-12-02 15:00:00+00:00,112.56495007156656
2024-12-02 17:00:00+00:00,112.56495007156656
2024-12-02 18:00:00+00:00,112.56495007156656
2024-12-02 19:00:00+00:00,112.56495007156656
2024-12-02 20:00:00+00:00,112.56495007156656
2024-12-03 14:00:00+00:00,112.56495007156656
2024-12-03 15:00:00+00:00,112.56495007156656
2024-12-03 16:00:00+00:00,112.56495007156656
2024-12-03 17:00:00+00:00,112.56495007156656
2024-12-03 18:00:00+00:00,112.56495007156656
2024-12-03 19:00:00+00:00,112.56495007156656
2024-12-03 20:00:00+00:00,112.56495007156656
2024-12-04 14:00:00+00:00,112.56495007156656
2024-12-04 15:00:00+00:00,112.56495007156656
2024-12-04 16:00:00+00:00,112.56495007156656
2024-12-04 17:00:00+00:00,112.56495007156656
2024-12-04 18:00:00+00:00,112.56495007156656
2024-12-04 19:00:00+00:00,112.56495007156656
2024-12-05 14:00:00+00:00,112.56495007156656
2024-12-05 15:00:00+00:00,112.56495007156656
2024-12-05 16:00:00+00:00,112.56495007156656
2024-12-05 17:00:00+00:00,112.56495007156656
2024-12-05 18:00:00+00:00,112.56495007156656
2024-12-05 19:00:00+00:00,112.56495007156656
2024-12-05 20:00:00+00:00,112.56495007156656
2024-12-06 14:00:00+00:00,112.56495007156656
2024-12-06 15:00:00+00:00,112.56495007156656
2024-12-06 16:00:00+00:00,112.56495007156656
2024-12-06 17:00:00+00:00,112.56495007156656
2024-12-06 18:00:00+00:00,112.56495007156656
2024-12-06 20:00:00+00:00,112.56495007156656
2024-12-09 14:00:00+00:00,112.56495007156656
2024-12-09 15:00:00+00:00,112.56495007156656
2024-12-09 16:00:00+00:00,112.56495007156656
2024-12-09 17:00:00+00:00,112.56495007156656
2024-12-09 19:00:00+00:00,112.56495007156656
2024-12-09 20:00:00+00:00,112.56495007156656
2024-12-10 14:00:00+00:00,112.56495007156656
2024-12-10 15:00:00+00:00,112.56495007156656
2024-12-10 16:00:00+00:00,112.56495007156656
2024-12-10 18:00:00+00:00,112.56495007156656
2024-12-10 19:00:00+00:00,112.56495007156656
2024-12-11 14:00:00+00:00,112.56495007156656
2024-12-11 15:00:00+00:00,112.56495007156656
2024-12-11 16:00:00+00:00,112.56495007156656
2024-12-11 17:00:00+00:00,112.56495007156656
2024-12-11 18:00:00+00:00,112.56495007156656
2024-12-11 19:00:00+00:00,112.56495007156656
2024-12-11 20:00:00+00:00,112.56495007156656
2024-12-12 14:00:00+00:00,112.56495007156656
2024-12-12 15:00:00+00:00,112.56495007156656
2024-12-12 16:00:00+00:00,112.56495007156656
2024-12-12 18:00:00+00:00,112.56495007156656
2024-12-12 19:00:00+00:00,112.56495007156656
2024-12-12 20:00:00+00:00,112.56495007156656
2024-12-13 16:00:00+00:00,112.56495007156656
2024-12-13 17:00:00+00:00,112.56495007156656
2024-12-13 19:00:00+00:00,112.56495007156656
2024-12-13 20:00:00+00:00,112.56495007156656
2024-12-16 14:00:00+00:00,112.56495007156656
2024-12-16 15:00:00+00:00,112.56495007156656
2024-12-16 16:00:00+00:00,112.56495007156656
2024-12-16 17:00:00+00:00,112.56495007156656
2024-12-16 18:00:00+00:00,112.56495007156656
2024-12-16 19:00:00+00:00,112.56495007156656
2024-12-16 20:00:00+00:00,112.56495007156656
2024-12-17 14:00:00+00:00,112.56495007156656
2024-12-17 15:00:00+00:00,112.56495007156656
2024-12-17 16:00:00+00:00,112.56495007156656
2024-12-17 17:00:00+00:00,112.56495007156656
2024-12-17 20:00:00+00:00,112.56495007156656
2024-12-18 14:00:00+00:00,112.56495007156656
2024-12-18 15:00:00+00:00,112.56495007156656
2024-12-18 16:00:00+00:00,112.56495007156656
2024-12-18 18:00:00+00:00,112.56495007156656
2024-12-18 19:00:00+00:00,112.56495007156656
2024-12-18 20:00:00+00:00,112.56495007156656
2024-12-19 14:00:00+00:00,112.56495007156656
2024-12-19 15:00:00+00:00,112.56495007156656
2024-12-19 16:00:00+00:00,112.56495007156656
2024-12-19 17:00:00+00:00,112.56495007156656
2024-12-19 18:00:00+00:00,112.56495007156656
2024-12-19 19:00:00+00:00,112.56495007156656
2024-12-19 20:00:00+00:00,112.56495007156656
2024-12-20 14:00:00+00:00,112.56495007156656
2024-12-20 15:00:00+00:00,112.56495007156656
2024-12-20 16:00:00+00:00,112.56495007156656
2024-12-20 17:00:00+00:00,112.56495007156656
2024-12-20 18:00:00+00:00,112.56495007156656
2024-12-20 19:00:00+00:00,112.56495007156656
2024-12-20 20:00:00+00:00,112.56495007156656
2024-12-23 14:00:00+00:00,112.56495007156656
2024-12-23 15:00:00+00:00,112.56495007156656
2024-12-23 16:00:00+00:00,112.56495007156656
2024-12-23 17:00:00+00:00,112.56495007156656
2024-12-23 18:00:00+00:00,112.56495007156656
2024-12-23 19:00:00+00:00,112.56495007156656
2024-12-23 20:00:00+00:00,112.56495007156656
2024-12-24 14:00:00+00:00,112.56495007156656
2024-12-24 15:00:00+00:00,112.56495007156656
2024-12-24 16:00:00+00:00,112.56495007156656
2024-12-26 14:00:00+00:00,112.56495007156656
2024-12-26 15:00:00+00:00,112.56495007156656
2024-12-26 16:00:00+00:00,112.56495007156656
2024-12-26 17:00:00+00:00,112.56495007156656
2024-12-26 18:00:00+00:00,112.56495007156656
2024-12-26 19:00:00+00:00,112.56495007156656
2024-12-26 20:00:00+00:00,112.56495007156656
2024-12-27 14:00:00+00:00,112.56495007156656
2024-12-27 15:00:00+00:00,112.56495007156656
2024-12-27 16:00:00+00:00,112.56495007156656
2024-12-27 17:00:00+00:00,112.56495007156656
2024-12-27 18:00:00+00:00,112.56495007156656
2024-12-27 19:00:00+00:00,112.56495007156656
2024-12-27 20:00:00+00:00,112.56495007156656
2024-12-30 14:00:00+00:00,112.56495007156656
2024-12-30 15:00:00+00:00,112.56495007156656
2024-12-30 16:00:00+00:00,112.56495007156656
2024-12-30 17:00:00+00:00,112.56495007156656
2024-12-30 18:00:00+00:00,112.56495007156656
2024-12-30 19:00:00+00:00,112.56495007156656
2024-12-30 20:00:00+00:00,112.56495007156656
2024-12-31 14:00:00+00:00,112.56495007156656
2024-12-31 15:00:00+00:00,112.56495007156656
2024-12-31 16:00:00+00:00,112.56495007156656
2024-12-31 17:00:00+00:00,112.56495007156656
2024-12-31 18:00:00+00:00,112.56495007156656
2024-12-31 19:00:00+00:00,112.56495007156656
2025-01-02 14:00:00+00:00,112.56495007156656
2025-01-02 15:00:00+00:00,112.56495007156656
2025-01-02 16:00:00+00:00,112.56495007156656
2025-01-02 17:00:00+00:00,112.56495007156656
2025-01-02 18:00:00+00:00,112.56495007156656
2025-01-02 19:00:00+00:00,112.56495007156656
2025-01-02 20:00:00+00:00,112.56495007156656
2025-01-03 14:00:00+00:00,112.56495007156656
2025-01-03 15:00:00+00:00,112.56495007156656
2025-01-03 16:00:00+00:00,112.56495007156656
2025-01-03 17:00:00+00:00,112.56495007156656
2025-01-03 18:00:00+00:00,112.56495007156656
2025-01-03 19:00:00+00:00,112.56495007156656
2025-01-03 20:00:00+00:00,112.56495007156656
2025-01-06 14:00:00+00:00,112.56495007156656
2025-01-06 15:00:00+00:00,112.56495007156656
2025-01-06 18:00:00+00:00,112.56495007156656
2025-01-06 19:00:00+00:00,112.56495007156656
2025-01-06 20:00:00+00:00,112.56495007156656
2025-01-07 14:00:00+00:00,112.56495007156656
2025-01-07 15:00:00+00:00,112.56495007156656
2025-01-07 16:00:00+00:00,112.56495007156656
2025-01-07 17:00:00+00:00,112.56495007156656
2025-01-07 18:00:00+00:00,112.56495007156656
2025-01-07 19:00:00+00:00,112.56495007156656
2025-01-07 20:00:00+00:00,112.56495007156656
2025-01-08 14:00:00+00:00,112.56495007156656
2025-01-08 15:00:00+00:00,112.56495007156656
2025-01-08 16:00:00+00:00,112.56495007156656
2025-01-08 17:00:00+00:00,112.56495007156656
2025-01-08 18:00:00+00:00,112.56495007156656
2025-01-08 19:00:00+00:00,112.56495007156656
2025-01-08 20:00:00+00:00,112.56495007156656
2025-01-10 14:00:00+00:00,112.56495007156656
2025-01-10 15:00:00+00:00,112.56495007156656
2025-01-10 16:00:00+00:00,112.56495007156656
2025-01-10 17:00:00+00:00,112.56495007156656
2025-01-10 19:00:00+00:00,112.56495007156656
2025-01-10 20:00:00+00:00,112.56495007156656
2025-01-13 14:00:00+00:00,112.56495007156656
2025-01-13 15:00:00+00:00,112.56495007156656
2025-01-13 16:00:00+00:00,112.56495007156656
2025-01-13 17:00:00+00:00,112.56495007156656
2025-01-13 18:00:00+00:00,112.56495007156656
2025-01-13 19:00:00+00:00,112.56495007156656
2025-01-13 20:00:00+00:00,112.56495007156656
2025-01-14 14:00:00+00:00,112.56495007156656
2025-01-14 15:00:00+00:00,112.56495007156656
2025-01-14 16:00:00+00:00,112.56495007156656
2025-01-14 17:00:00+00:00,112.56495007156656
2025-01-14 18:00:00+00:00,112.56495007156656
2025-01-14 19:00:00+00:00,112.56495007156656
2025-01-14 20:00:00+00:00,112.56495007156656
2025-01-15 14:00:00+00:00,112.56495007156656
2025-01-15 15:00:00+00:00,112.56495007156656
2025-01-15 16:00:00+00:00,112.56495007156656
2025-01-15 18:00:00+00:00,112.56495007156656
2025-01-15 19:00:00+00:00,112.56495007156656
2025-01-15 20:00:00+00:00,112.56495007156656
2025-01-16 14:00:00+00:00,112.56495007156656
2025-01-16 15:00:00+00:00,112.56495007156656
2025-01-16 16:00:00+00:00,112.56495007156656
2025-01-16 17:00:00+00:00,112.56495007156656
2025-01-16 19:00:00+00:00,112.56495007156656
2025-01-16 20:00:00+00:00,112.56495007156656
2025-01-17 14:00:00+00:00,112.56495007156656
2025-01-17 15:00:00+00:00,112.56495007156656
2025-01-17 16:00:00+00:00,112.56495007156656
2025-01-17 18:00:00+00:00,112.56495007156656
2025-01-17 19:00:00+00:00,112.56495007156656
2025-01-17 20:00:00+00:00,112.56495007156656
2025-01-21 14:00:00+00:00,112.56495007156656
2025-01-21 15:00:00+00:00,112.56495007156656
2025-01-21 16:00:00+00:00,112.56495007156656
2025-01-21 17:00:00+00:00,112.56495007156656
2025-01-21 19:00:00+00:00,112.56495007156656
2025-01-21 20:00:00+00:00,112.56495007156656
2025-01-22 14:00:00+00:00,112.56495007156656
2025-01-22 16:00:00+00:00,112.56495007156656
2025-01-22 17:00:00+00:00,112.56495007156656
2025-01-22 19:00:00+00:00,112.56495007156656
2025-01-22 20:00:00+00:00,112.56495007156656
2025-01-23 14:00:00+00:00,112.56495007156656
2025-01-23 15:00:00+00:00,112.56495007156656
2025-01-23 16:00:00+00:00,112.56495007156656
2025-01-23 17:00:00+00:00,112.56495007156656
2025-01-23 18:00:00+00:00,112.56495007156656
2025-01-23 19:00:00+00:00,112.56495007156656
2025-01-23 20:00:00+00:00,112.56495007156656
2025-01-24 14:00:00+00:00,112.56495007156656
2025-01-24 15:00:00+00:00,112.56495007156656
2025-01-24 16:00:00+00:00,112.56495007156656
2025-01-24 17:00:00+00:00,112.56495007156656
2025-01-24 18:00:00+00:00,112.56495007156656
2025-01-24 19:00:00+00:00,112.56495007156656
2025-01-24 20:00:00+00:00,112.56495007156656
2025-01-27 14:00:00+00:00,112.56495007156656
2025-01-27 15:00:00+00:00,112.56495007156656
2025-01-27 16:00:00+00:00,112.56495007156656
2025-01-27 17:00:00+00:00,112.56495007156656
2025-01-27 18:00:00+00:00,112.56495007156656
2025-01-27 19:00:00+00:00,112.56495007156656
2025-01-27 20:00:00+00:00,112.56495007156656
2025-01-28 14:00:00+00:00,112.56495007156656
2025-01-28 15:00:00+00:00,112.56495007156656
2025-01-28 16:00:00+00:00,112.56495007156656
2025-01-28 17:00:00+00:00,112.56495007156656
2025-01-28 18:00:00+00:00,112.56495007156656
2025-01-28 19:00:00+00:00,112.56495007156656
2025-01-29 14:00:00+00:00,112.56495007156656
2025-01-29 15:00:00+00:00,112.56495007156656
2025-01-29 16:00:00+00:00,112.56495007156656
2025-01-29 17:00:00+00:00,112.56495007156656
2025-01-29 18:00:00+00:00,112.56495007156656
2025-01-29 19:00:00+00:00,112.56495007156656
2025-01-29 20:00:00+00:00,112.56495007156656
2025-01-30 14:00:00+00:00,112.56495007156656
2025-01-30 15:00:00+00:00,112.56495007156656
2025-01-30 16:00:00+00:00,112.56495007156656
2025-01-30 18:00:00+00:00,112.56495007156656
2025-01-30 19:00:00+00:00,112.56495007156656
2025-01-30 20:00:00+00:00,112.56495007156656
2025-01-31 14:00:00+00:00,-280.98153174475965
2025-01-31 15:00:00+00:00,-333.97835071481234
2025-01-31 16:00:00+00:00,-325.0490844320192
2025-01-31 17:00:00+00:00,-293.1124098978314
2025-01-31 18:00:00+00:00,-284.27021713630114
2025-01-31 19:00:00+00:00,-307.7343122578119
2025-01-31 20:00:00+00:00,-307.50025315910597
2025-02-03 14:00:00+00:00,-408.92140069666084
2025-02-03 15:00:00+00:00,-420.04604920174154
2025-02-03 16:00:00+00:00,-408.7042142796284
2025-02-03 17:00:00+00:00,-418.3471823659206
2025-02-03 18:00:00+00:00,-432.0197224728483
2025-02-03 19:00:00+00:00,-465.85493777437676
2025-02-03 20:00:00+00:00,-471.2517334391506
2025-02-04 16:00:00+00:00,-486.24131465562124
2025-02-04 18:00:00+00:00,-451.10994689498847
2025-02-04 20:00:00+00:00,-474.635532960964
2025-02-05 14:00:00+00:00,442.0913704620155
2025-02-05 15:00:00+00:00,459.5735755049812
2025-02-05 16:00:00+00:00,485.48255325284185
2025-02-05 17:00:00+00:00,459.7045935145938
2025-02-05 19:00:00+00:00,472.8686042854261
2025-02-05 20:00:00+00:00,512.4850308212698
2025-02-06 14:00:00+00:00,538.5114880004336
2025-02-06 15:00:00+00:00,628.8988647009252
2025-02-06 17:00:00+00:00,741.6676565334963
2025-02-06 18:00:00+00:00,693.7695778666481
2025-02-06 19:00:00+00:00,703.2323419629403
2025-02-06 20:00:00+00:00,731.8593648058624
2025-02-07 14:00:00+00:00,776.5888696700389
2025-02-07 15:00:00+00:00,727.1570902754733
2025-02-07 16:00:00+00:00,733.8156631446127
2025-02-07 17:00:00+00:00,716.4784980441033
2025-02-07 19:00:00+00:00,710.0112853131312
2025-02-07 20:00:00+00:00,723.4606169101653
2025-02-10 14:00:00+00:00,704.7884528079883
2025-02-10 15:00:00+00:00,698.1074266922891
2025-02-10 19:00:00+00:00,660.6326054203942
2025-02-10 20:00:00+00:00,651.126371232012
2025-02-11 14:00:00+00:00,624.5899939469494
2025-02-11 16:00:00+00:00,615.9580840046001
2025-02-11 17:00:00+00:00,607.7134358652401
2025-02-11 19:00:00+00:00,610.9945885135558
2025-02-11 20:00:00+00:00,631.1921710332897
2025-02-12 14:00:00+00:00,573.2852149662008
2025-02-12 15:00:00+00:00,525.525140545507
2025-02-12 16:00:00+00:00,587.1574000234543
2025-02-12 17:00:00+00:00,615.2267045884586
2025-02-12 18:00:00+00:00,642.4380870714758
2025-02-12 19:00:00+00:00,627.0848291761952
2025-02-12 20:00:00+00:00,613.2515536217556
2025-02-13 14:00:00+00:00,770.4081552741177
2025-02-13 15:00:00+00:00,775.1705934804178
2025-02-13 16:00:00+00:00,782.8552594008428
2025-02-13 17:00:00+00:00,794.775383122596
2025-02-13 18:00:00+00:00,803.548722764601
2025-02-13 19:00:00+00:00,806.9336574221879
2025-02-13 20:00:00+00:00,806.3488473353852
2025-02-14 14:00:00+00:00,816.6301102469197
2025-02-14 15:00:00+00:00,808.3365655629528
2025-02-14 16:00:00+00:00,810.7892487047891
2025-02-14 17:00:00+00:00,814.0844945265106
2025-02-14 18:00:00+00:00,809.9752471582487
2025-02-14 19:00:00+00:00,815.4289102179612
2025-02-14 20:00:00+00:00,799.1137466896046
2025-02-18 14:00:00+00:00,789.0743266215775
2025-02-18 15:00:00+00:00,801.7680330829057
2025-02-18 16:00:00+00:00,802.8826800504747
2025-02-18 17:00:00+00:00,795.7252385524002
2025-02-18 18:00:00+00:00,795.3741052536145
2025-02-18 19:00:00+00:00,790.8990845400288
2025-02-18 20:00:00+00:00,822.3003557495484
2025-02-19 14:00:00+00:00,712.9729588360491
2025-02-19 15:00:00+00:00,648.5959438045406
2025-02-19 16:00:00+00:00,627.9521895125774
2025-02-19 17:00:00+00:00,635.3846496030542
2025-02-19 18:00:00+00:00,665.638864565818
2025-02-19 19:00:00+00:00,674.5435519543446
2025-02-19 20:00:00+00:00,686.5960526901971
2025-02-20 14:00:00+00:00,635.1501427730519
2025-02-20 15:00:00+00:00,678.1027054055932
2025-02-20 16:00:00+00:00,703.9297005754024
2025-02-20 17:00:00+00:00,721.5741763509076
2025-02-20 18:00:00+00:00,714.0763992808266
2025-02-20 19:00:00+00:00,717.5237018887516
2025-02-21 14:00:00+00:00,712.1703763160668
2025-02-21 15:00:00+00:00,713.9409633133214
2025-02-21 16:00:00+00:00,662.9363082634749
2025-02-21 17:00:00+00:00,622.610186140843
2025-02-21 18:00:00+00:00,530.0645829618725
2025-02-21 19:00:00+00:00,534.0914722998451
2025-02-21 20:00:00+00:00,533.4590203525418
2025-02-24 14:00:00+00:00,534.3626246916482
2025-02-24 15:00:00+00:00,505.5949425244655
2025-02-24 16:00:00+00:00,482.1705064727058
2025-02-24 17:00:00+00:00,481.8775364981352
2025-02-24 18:00:00+00:00,480.94905110557187
2025-02-24 19:00:00+00:00,475.1844416233249
2025-02-24 20:00:00+00:00,470.83917345082244
2025-02-25 14:00:00+00:00,473.6389124527695
2025-02-25 15:00:00+00:00,502.45118389308965
2025-02-25 16:00:00+00:00,504.17195826045054
2025-02-25 17:00:00+00:00,512.0904921242393
2025-02-25 18:00:00+00:00,480.6564102561014
2025-02-25 19:00:00+00:00,522.5243873880457
2025-02-25 20:00:00+00:00,507.1290932997081
2025-02-26 14:00:00+00:00,549.0435261365484
2025-02-26 15:00:00+00:00,588.5053678450613
2025-02-26 16:00:00+00:00,572.5342980490159
2025-02-26 17:00:00+00:00,531.8203387572462
2025-02-26 18:00:00+00:00,558.5363064339971
2025-02-26 19:00:00+00:00,562.1610812024848
2025-02-26 20:00:00+00:00,552.4627348070036
2025-02-27 14:00:00+00:00,558.4518517371953
2025-02-27 15:00:00+00:00,550.022883026143
2025-02-27 16:00:00+00:00,527.2532422956701
2025-02-27 17:00:00+00:00,509.3516744214463
2025-02-27 18:00:00+00:00,524.8285227446102
2025-02-27 19:00:00+00:00,489.11485021557246
2025-02-27 20:00:00+00:00,493.7581175552813
2025-02-28 14:00:00+00:00,560.7911533110706
2025-02-28 15:00:00+00:00,518.66315483293
2025-02-28 16:00:00+00:00,521.3701568279114
2025-02-28 17:00:00+00:00,446.82239456903216
2025-02-28 18:00:00+00:00,448.41503779358817
2025-02-28 19:00:00+00:00,460.9558221515558
2025-02-28 20:00:00+00:00,503.3226314730198
2025-03-03 14:00:00+00:00,554.4464292922755
2025-03-03 15:00:00+00:00,497.00134050247243
2025-03-03 16:00:00+00:00,507.16520023930013
2025-03-03 17:00:00+00:00,504.67246167656793
2025-03-03 18:00:00+00:00,505.57013022964196
2025-03-03 19:00:00+00:00,480.73072080179867
2025-03-03 20:00:00+00:00,480.33736015461227
2025-03-04 14:00:00+00:00,410.38825573967506
2025-03-04 15:00:00+00:00,366.18449356084136
2025-03-04 16:00:00+00:00,390.687628988962
2025-03-04 17:00:00+00:00,365.897288788084
2025-03-04 18:00:00+00:00,360.1986337235976
2025-03-04 19:00:00+00:00,342.40419403029057
2025-03-04 20:00:00+00:00,275.65645753609004
2025-03-05 14:00:00+00:00,287.0359471598385
2025-03-05 15:00:00+00:00,234.47869448221655
2025-03-05 16:00:00+00:00,282.9963232864975
2025-03-05 17:00:00+00:00,347.6662004211343
2025-03-05 18:00:00+00:00,421.33259033380807
2025-03-05 19:00:00+00:00,470.0931994336004
2025-03-05 20:00:00+00:00,431.13317646933507
2025-03-06 14:00:00+00:00,481.21643560426384
2025-03-06 15:00:00+00:00,488.0343100218828
2025-03-06 16:00:00+00:00,457.843643590686
2025-03-06 17:00:00+00:00,478.8938491788247
2025-03-06 18:00:00+00:00,480.53253077412035
2025-03-06 19:00:00+00:00,518.0241103236821
2025-03-06 20:00:00+00:00,472.8002229931946
2025-03-07 14:00:00+00:00,374.53606816518004
2025-03-07 15:00:00+00:00,392.00894968998745
2025-03-07 17:00:00+00:00,425.07839530783536
2025-03-07 18:00:00+00:00,471.32296117750576
2025-03-07 19:00:00+00:00,433.245741499156
2025-03-07 20:00:00+00:00,421.9216368828663
2025-03-10 13:00:00+00:00,474.5562130731411
2025-03-10 14:00:00+00:00,467.54081193632265
2025-03-10 15:00:00+00:00,476.75819473295684
2025-03-10 16:00:00+00:00,454.1261749444623
2025-03-10 17:00:00+00:00,397.19595571233174
2025-03-10 18:00:00+00:00,392.0677441607097
2025-03-10 19:00:00+00:00,361.88107990719567
2025-03-11 13:00:00+00:00,272.1006429540443
2025-03-11 14:00:00+00:00,250.43784882189505
2025-03-11 15:00:00+00:00,216.6025083976565
2025-03-11 16:00:00+00:00,216.6025083976565
2025-03-11 17:00:00+00:00,216.6025083976565
2025-03-11 18:00:00+00:00,216.6025083976565
2025-03-11 19:00:00+00:00,216.6025083976565
2025-03-12 13:00:00+00:00,216.6025083976565
2025-03-12 14:00:00+00:00,216.6025083976565
2025-03-12 15:00:00+00:00,216.6025083976565
2025-03-12 16:00:00+00:00,216.6025083976565
2025-03-12 17:00:00+00:00,216.6025083976565
2025-03-12 18:00:00+00:00,216.6025083976565
2025-03-12 19:00:00+00:00,216.6025083976565
2025-03-13 13:00:00+00:00,216.6025083976565
2025-03-13 14:00:00+00:00,216.6025083976565
2025-03-13 15:00:00+00:00,216.6025083976565
2025-03-13 17:00:00+00:00,216.6025083976565
2025-03-13 18:00:00+00:00,216.6025083976565
2025-03-13 19:00:00+00:00,216.6025083976565
2025-03-14 13:00:00+00:00,216.6025083976565
2025-03-14 14:00:00+00:00,216.6025083976565
2025-03-14 15:00:00+00:00,216.6025083976565
2025-03-14 16:00:00+00:00,216.6025083976565
2025-03-14 17:00:00+00:00,216.6025083976565
2025-03-14 18:00:00+00:00,216.6025083976565
2025-03-14 19:00:00+00:00,216.6025083976565
2025-03-17 13:00:00+00:00,216.6025083976565
2025-03-17 14:00:00+00:00,216.6025083976565
2025-03-17 15:00:00+00:00,216.6025083976565
2025-03-17 16:00:00+00:00,216.6025083976565
2025-03-17 17:00:00+00:00,216.6025083976565
2025-03-17 18:00:00+00:00,216.6025083976565
2025-03-17 19:00:00+00:00,216.6025083976565
2025-03-18 13:00:00+00:00,216.6025083976565
2025-03-18 14:00:00+00:00,216.6025083976565
2025-03-18 15:00:00+00:00,216.6025083976565
2025-03-18 16:00:00+00:00,216.6025083976565
2025-03-18 17:00:00+00:00,216.6025083976565
2025-03-18 18:00:00+00:00,216.6025083976565
2025-03-18 19:00:00+00:00,216.6025083976565
2025-03-19 13:00:00+00:00,216.6025083976565
2025-03-19 14:00:00+00:00,216.6025083976565
2025-03-19 15:00:00+00:00,216.6025083976565
2025-03-19 16:00:00+00:00,216.6025083976565
2025-03-19 17:00:00+00:00,216.6025083976565
2025-03-19 18:00:00+00:00,216.6025083976565
2025-03-19 19:00:00+00:00,216.6025083976565
2025-03-20 13:00:00+00:00,216.6025083976565
2025-03-20 14:00:00+00:00,216.6025083976565
2025-03-20 15:00:00+00:00,216.6025083976565
2025-03-20 16:00:00+00:00,216.6025083976565
2025-03-20 17:00:00+00:00,216.6025083976565
2025-03-20 18:00:00+00:00,216.6025083976565
2025-03-20 19:00:00+00:00,216.6025083976565
2025-03-21 13:00:00+00:00,216.6025083976565
2025-03-21 14:00:00+00:00,216.6025083976565
2025-03-21 15:00:00+00:00,216.6025083976565
2025-03-21 16:00:00+00:00,216.6025083976565
2025-03-21 17:00:00+00:00,216.6025083976565
2025-03-21 18:00:00+00:00,216.6025083976565
2025-03-21 19:00:00+00:00,216.6025083976565
2025-03-24 13:00:00+00:00,216.6025083976565
2025-03-24 14:00:00+00:00,216.6025083976565
2025-03-24 15:00:00+00:00,216.6025083976565
2025-03-24 16:00:00+00:00,216.6025083976565
2025-03-24 17:00:00+00:00,216.6025083976565
2025-03-24 18:00:00+00:00,216.6025083976565
2025-03-24 19:00:00+00:00,216.6025083976565
2025-03-25 13:00:00+00:00,216.6025083976565
2025-03-25 14:00:00+00:00,216.6025083976565
2025-03-25 15:00:00+00:00,216.6025083976565
2025-03-25 16:00:00+00:00,216.6025083976565
2025-03-25 17:00:00+00:00,216.6025083976565
2025-03-25 18:00:00+00:00,216.6025083976565
2025-03-25 19:00:00+00:00,216.6025083976565
2025-03-26 13:00:00+00:00,216.6025083976565
2025-03-26 14:00:00+00:00,216.6025083976565
2025-03-26 15:00:00+00:00,216.6025083976565
2025-03-26 16:00:00+00:00,216.6025083976565
2025-03-26 17:00:00+00:00,216.6025083976565
2025-03-26 18:00:00+00:00,216.6025083976565
2025-03-26 19:00:00+00:00,216.6025083976565
2025-03-27 13:00:00+00:00,216.6025083976565
2025-03-27 14:00:00+00:00,216.6025083976565
2025-03-27 15:00:00+00:00,216.6025083976565
2025-03-27 16:00:00+00:00,216.6025083976565
2025-03-27 17:00:00+00:00,216.6025083976565
2025-03-27 18:00:00+00:00,216.6025083976565
2025-03-27 19:00:00+00:00,216.6025083976565
2025-03-28 13:00:00+00:00,216.6025083976565
2025-03-28 14:00:00+00:00,216.6025083976565
2025-03-28 15:00:00+00:00,216.6025083976565
2025-03-28 16:00:00+00:00,216.6025083976565
2025-03-28 17:00:00+00:00,216.6025083976565
2025-03-28 18:00:00+00:00,216.6025083976565
2025-03-28 19:00:00+00:00,216.6025083976565
2025-03-31 13:00:00+00:00,216.6025083976565
2025-03-31 14:00:00+00:00,216.6025083976565
2025-03-31 15:00:00+00:00,216.6025083976565
2025-03-31 16:00:00+00:00,216.6025083976565
2025-03-31 17:00:00+00:00,216.6025083976565
2025-03-31 18:00:00+00:00,216.6025083976565
2025-03-31 19:00:00+00:00,216.6025083976565
2025-04-01 13:00:00+00:00,216.6025083976565
2025-04-01 14:00:00+00:00,216.6025083976565
2025-04-01 15:00:00+00:00,216.6025083976565
2025-04-01 16:00:00+00:00,216.6025083976565
2025-04-01 17:00:00+00:00,216.6025083976565
2025-04-01 18:00:00+00:00,216.6025083976565
2025-04-01 19:00:00+00:00,216.6025083976565
2025-04-02 13:00:00+00:00,216.6025083976565
2025-04-02 14:00:00+00:00,216.6025083976565
2025-04-02 16:00:00+00:00,216.6025083976565
2025-04-02 17:00:00+00:00,216.6025083976565
2025-04-02 18:00:00+00:00,216.6025083976565
2025-04-02 19:00:00+00:00,216.6025083976565
2025-04-03 13:00:00+00:00,216.6025083976565
2025-04-03 14:00:00+00:00,216.6025083976565
2025-04-03 15:00:00+00:00,216.6025083976565
2025-04-03 16:00:00+00:00,216.6025083976565
2025-04-03 17:00:00+00:00,216.6025083976565
2025-04-03 18:00:00+00:00,216.6025083976565
2025-04-03 19:00:00+00:00,216.6025083976565
2025-04-04 13:00:00+00:00,216.6025083976565
2025-04-04 14:00:00+00:00,216.6025083976565
2025-04-04 15:00:00+00:00,216.6025083976565
2025-04-04 16:00:00+00:00,216.6025083976565
2025-04-04 17:00:00+00:00,216.6025083976565
2025-04-04 18:00:00+00:00,216.6025083976565
2025-04-04 19:00:00+00:00,216.6025083976565
2025-04-07 13:00:00+00:00,216.6025083976565
2025-04-07 14:00:00+00:00,216.6025083976565
2025-04-07 15:00:00+00:00,216.6025083976565
2025-04-07 16:00:00+00:00,216.6025083976565
2025-04-07 17:00:00+00:00,216.6025083976565
2025-04-07 18:00:00+00:00,216.6025083976565
2025-04-07 19:00:00+00:00,216.6025083976565
2025-04-08 13:00:00+00:00,216.6025083976565
2025-04-08 14:00:00+00:00,216.6025083976565
2025-04-08 15:00:00+00:00,216.6025083976565
2025-04-08 16:00:00+00:00,151.08906668124808
2025-04-08 17:00:00+00:00,114.61338529214908
2025-04-08 18:00:00+00:00,36.35078582667164
2025-04-08 19:00:00+00:00,53.09703244959627
2025-04-09 13:00:00+00:00,193.85066075179955
2025-04-09 14:00:00+00:00,214.1381391082371
2025-04-09 15:00:00+00:00,249.26857912834447
2025-04-09 16:00:00+00:00,464.77184680212054
2025-04-09 17:00:00+00:00,588.5757109263526
2025-04-09 18:00:00+00:00,601.7106237608268
2025-04-09 19:00:00+00:00,663.1533959906512
2025-04-10 13:00:00+00:00,445.7655369719504
2025-04-10 14:00:00+00:00,386.9354080148731
2025-04-10 15:00:00+00:00,292.04174128979025
2025-04-10 16:00:00+00:00,337.04398150589293
2025-04-10 17:00:00+00:00,421.314088537193
2025-04-10 18:00:00+00:00,394.3516755134341
2025-04-10 19:00:00+00:00,397.1183961186096
2025-04-11 13:00:00+00:00,343.516839913317
2025-04-11 14:00:00+00:00,380.2513555176378
2025-04-11 15:00:00+00:00,408.870402545586
2025-04-11 16:00:00+00:00,428.5480905872953
2025-04-11 17:00:00+00:00,467.9904993220778
2025-04-11 18:00:00+00:00,493.7315993638884
2025-04-11 19:00:00+00:00,496.85179707394434
2025-04-14 13:00:00+00:00,560.5256587808116
2025-04-14 14:00:00+00:00,521.350542551109
2025-04-14 15:00:00+00:00,495.2420842919788
2025-04-14 16:00:00+00:00,485.2858256611281
2025-04-14 17:00:00+00:00,490.8865840689464
2025-04-14 18:00:00+00:00,509.3217459537787
2025-04-14 19:00:00+00:00,515.3052300267858
2025-04-15 13:00:00+00:00,400.7782303359682
2025-04-15 14:00:00+00:00,410.00205527075013
2025-04-15 15:00:00+00:00,407.9758055664271
2025-04-15 16:00:00+00:00,392.37095779480205
2025-04-15 17:00:00+00:00,375.28475612676345
2025-04-15 18:00:00+00:00,384.74549215346235
2025-04-15 19:00:00+00:00,383.2023460802604
2025-04-16 13:00:00+00:00,299.93691135089136
2025-04-16 14:00:00+00:00,405.0374797970311
2025-04-16 15:00:00+00:00,340.8749608213058
2025-04-16 17:00:00+00:00,310.4256633551828
2025-04-16 18:00:00+00:00,262.89792659569747
2025-04-16 19:00:00+00:00,304.764449194025
2025-04-17 13:00:00+00:00,373.3004685218564
2025-04-17 14:00:00+00:00,397.23103925441234
2025-04-17 15:00:00+00:00,386.296085605533
2025-04-17 16:00:00+00:00,390.7541087386054
2025-04-17 17:00:00+00:00,422.2296169599079
2025-04-17 18:00:00+00:00,400.9758689428723
2025-04-17 19:00:00+00:00,384.27776415754107
2025-04-21 13:00:00+00:00,331.33709895124224
2025-04-21 14:00:00+00:00,302.81536730169034
2025-04-21 15:00:00+00:00,305.6895136283091
2025-04-21 16:00:00+00:00,289.2879116435937
2025-04-21 17:00:00+00:00,318.4674598715278
2025-04-21 18:00:00+00:00,304.0182834996687
2025-04-21 19:00:00+00:00,313.29655439848193
2025-04-22 13:00:00+00:00,374.3297033942624
2025-04-22 14:00:00+00:00,394.55347680098686
2025-04-22 15:00:00+00:00,436.51879861991904
2025-04-22 16:00:00+00:00,382.5946594972178
2025-04-22 17:00:00+00:00,384.8186127000313
2025-04-22 18:00:00+00:00,398.3057538683156
2025-04-22 19:00:00+00:00,397.06614173115946
2025-04-23 13:00:00+00:00,548.7193113534203
2025-04-23 14:00:00+00:00,525.7091840271473
2025-04-23 15:00:00+00:00,404.6511877438831
2025-04-23 16:00:00+00:00,422.46454430036584
2025-04-23 17:00:00+00:00,421.171987921516
2025-04-23 18:00:00+00:00,391.2038802694684
2025-04-23 19:00:00+00:00,399.6080552216411
2025-04-24 13:00:00+00:00,408.41162640425887
2025-04-24 14:00:00+00:00,428.7875547852196
2025-04-24 16:00:00+00:00,451.0468953891351
2025-04-24 17:00:00+00:00,454.81148637220934
2025-04-24 18:00:00+00:00,456.11751141497143
2025-04-24 19:00:00+00:00,452.2844313649393
2025-04-25 13:00:00+00:00,281.375792095614
2025-04-25 14:00:00+00:00,270.33490295189637
2025-04-25 15:00:00+00:00,272.64279689210287
2025-04-25 16:00:00+00:00,295.2435827677368
2025-04-25 17:00:00+00:00,297.3467419925016
2025-04-25 18:00:00+00:00,302.38987451474304
2025-04-25 19:00:00+00:00,302.25465418506815
2025-04-28 13:00:00+00:00,284.38931457292813
2025-04-28 14:00:00+00:00,309.2434734804528
2025-04-28 15:00:00+00:00,289.2366137106778
2025-04-28 16:00:00+00:00,241.8076761717954
2025-04-28 17:00:00+00:00,276.4293826326235
2025-04-28 18:00:00+00:00,281.561874121229
2025-04-28 19:00:00+00:00,300.3525422608389
2025-04-29 13:00:00+00:00,323.35773745447295
2025-04-29 14:00:00+00:00,356.59378775932845
2025-04-29 15:00:00+00:00,367.5522263922603
2025-04-29 16:00:00+00:00,372.2989249781631
2025-04-29 17:00:00+00:00,368.9696756760081
2025-04-29 19:00:00+00:00,346.5344202836952
2025-04-30 13:00:00+00:00,704.6845985217955
2025-04-30 14:00:00+00:00,704.6845985217955
2025-04-30 15:00:00+00:00,704.6845985217955
2025-04-30 16:00:00+00:00,704.6845985217955
2025-04-30 17:00:00+00:00,704.6845985217955
2025-04-30 18:00:00+00:00,704.6845985217955
2025-05-01 13:00:00+00:00,704.6845985217955
2025-05-01 14:00:00+00:00,704.6845985217955
2025-05-01 15:00:00+00:00,704.6845985217955
2025-05-01 16:00:00+00:00,704.6845985217955
2025-05-01 17:00:00+00:00,704.6845985217955
2025-05-01 18:00:00+00:00,704.6845985217955
2025-05-01 19:00:00+00:00,704.6845985217955
2025-05-02 13:00:00+00:00,704.6845985217955
2025-05-02 14:00:00+00:00,704.6845985217955
2025-05-02 15:00:00+00:00,704.6845985217955
2025-05-02 16:00:00+00:00,704.6845985217955
2025-05-02 17:00:00+00:00,704.6845985217955
2025-05-02 18:00:00+00:00,704.6845985217955
2025-05-02 19:00:00+00:00,704.6845985217955
2025-05-05 13:00:00+00:00,704.6845985217955
2025-05-05 14:00:00+00:00,704.6845985217955
2025-05-05 15:00:00+00:00,704.6845985217955
2025-05-05 16:00:00+00:00,704.6845985217955
2025-05-05 17:00:00+00:00,704.6845985217955
2025-05-05 18:00:00+00:00,704.6845985217955
2025-05-05 19:00:00+00:00,704.6845985217955
2025-05-06 13:00:00+00:00,704.6845985217955
2025-05-06 14:00:00+00:00,704.6845985217955
2025-05-06 15:00:00+00:00,704.6845985217955
2025-05-06 16:00:00+00:00,704.6845985217955
2025-05-06 17:00:00+00:00,704.6845985217955
2025-05-06 18:00:00+00:00,704.6845985217955
2025-05-06 19:00:00+00:00,704.6845985217955
2025-05-07 13:00:00+00:00,704.6845985217955
2025-05-07 15:00:00+00:00,704.6845985217955
2025-05-07 17:00:00+00:00,704.6845985217955
2025-05-07 18:00:00+00:00,704.6845985217955
2025-05-07 19:00:00+00:00,704.6845985217955
2025-05-08 13:00:00+00:00,704.6845985217955
2025-05-08 14:00:00+00:00,704.6845985217955
2025-05-08 15:00:00+00:00,704.6845985217955
2025-05-08 16:00:00+00:00,704.6845985217955
2025-05-08 17:00:00+00:00,704.6845985217955
2025-05-08 18:00:00+00:00,704.6845985217955
2025-05-08 19:00:00+00:00,704.6845985217955
2025-05-09 13:00:00+00:00,704.6845985217955
2025-05-09 14:00:00+00:00,704.6845985217955
2025-05-09 15:00:00+00:00,704.6845985217955
2025-05-09 16:00:00+00:00,704.6845985217955
2025-05-09 17:00:00+00:00,704.6845985217955
2025-05-09 18:00:00+00:00,704.6845985217955
2025-05-09 19:00:00+00:00,704.6845985217955
2025-05-12 13:00:00+00:00,704.6845985217955
2025-05-12 14:00:00+00:00,704.6845985217955
2025-05-12 15:00:00+00:00,704.6845985217955
2025-05-12 16:00:00+00:00,704.6845985217955
2025-05-12 17:00:00+00:00,704.6845985217955
2025-05-12 18:00:00+00:00,704.6845985217955
2025-05-12 19:00:00+00:00,704.6845985217955
2025-05-13 13:00:00+00:00,704.6845985217955
2025-05-13 14:00:00+00:00,704.6845985217955
2025-05-13 15:00:00+00:00,704.6845985217955
2025-05-13 17:00:00+00:00,704.6845985217955
2025-05-13 18:00:00+00:00,704.6845985217955
2025-05-13 19:00:00+00:00,704.6845985217955
2025-05-14 13:00:00+00:00,704.6845985217955
2025-05-14 14:00:00+00:00,704.6845985217955
2025-05-14 15:00:00+00:00,704.6845985217955
2025-05-14 16:00:00+00:00,704.6845985217955
2025-05-14 17:00:00+00:00,704.6845985217955
2025-05-14 18:00:00+00:00,704.6845985217955
2025-05-14 19:00:00+00:00,704.6845985217955
2025-05-15 13:00:00+00:00,704.6845985217955
2025-05-15 14:00:00+00:00,704.6845985217955
2025-05-15 15:00:00+00:00,704.6845985217955
2025-05-15 16:00:00+00:00,704.6845985217955
2025-05-15 17:00:00+00:00,704.6845985217955
2025-05-15 18:00:00+00:00,704.6845985217955
2025-05-15 19:00:00+00:00,704.6845985217955
2025-05-16 13:00:00+00:00,704.6845985217955
2025-05-16 14:00:00+00:00,704.6845985217955
2025-05-16 15:00:00+00:00,704.6845985217955
2025-05-16 16:00:00+00:00,704.6845985217955
2025-05-16 17:00:00+00:00,704.6845985217955
2025-05-16 18:00:00+00:00,704.6845985217955
2025-05-16 19:00:00+00:00,704.6845985217955
2025-05-19 13:00:00+00:00,704.6845985217955
2025-05-19 14:00:00+00:00,704.6845985217955
2025-05-19 15:00:00+00:00,704.6845985217955
2025-05-19 16:00:00+00:00,704.6845985217955
2025-05-19 17:00:00+00:00,704.6845985217955
2025-05-19 18:00:00+00:00,704.6845985217955
2025-05-19 19:00:00+00:00,704.6845985217955
2025-05-20 13:00:00+00:00,704.6845985217955
2025-05-20 14:00:00+00:00,704.6845985217955
2025-05-20 15:00:00+00:00,704.6845985217955
2025-05-20 16:00:00+00:00,704.6845985217955
2025-05-20 17:00:00+00:00,704.6845985217955
2025-05-20 18:00:00+00:00,704.6845985217955
2025-05-20 19:00:00+00:00,704.6845985217955
2025-05-21 13:00:00+00:00,704.6845985217955
2025-05-21 14:00:00+00:00,704.6845985217955
2025-05-21 15:00:00+00:00,704.6845985217955
2025-05-21 16:00:00+00:00,704.6845985217955
2025-05-21 17:00:00+00:00,704.6845985217955
2025-05-21 18:00:00+00:00,704.6845985217955
2025-05-21 19:00:00+00:00,704.6845985217955
2025-05-22 13:00:00+00:00,704.6845985217955
2025-05-22 14:00:00+00:00,704.6845985217955
2025-05-22 16:00:00+00:00,704.6845985217955
2025-05-22 17:00:00+00:00,704.6845985217955
2025-05-22 18:00:00+00:00,704.6845985217955
2025-05-22 19:00:00+00:00,704.6845985217955
2025-05-23 13:00:00+00:00,704.6845985217955
2025-05-23 14:00:00+00:00,704.6845985217955
2025-05-23 15:00:00+00:00,704.6845985217955
2025-05-23 16:00:00+00:00,704.6845985217955
2025-05-23 17:00:00+00:00,704.6845985217955
2025-05-23 18:00:00+00:00,704.6845985217955
2025-05-23 19:00:00+00:00,704.6845985217955
2025-05-27 13:00:00+00:00,704.6845985217955
2025-05-27 14:00:00+00:00,704.6845985217955
2025-05-27 15:00:00+00:00,704.6845985217955
2025-05-27 16:00:00+00:00,704.6845985217955
2025-05-27 17:00:00+00:00,704.6845985217955
2025-05-27 18:00:00+00:00,704.6845985217955
2025-05-27 19:00:00+00:00,704.6845985217955
2025-05-28 13:00:00+00:00,704.6845985217955
2025-05-28 14:00:00+00:00,704.6845985217955
2025-05-28 15:00:00+00:00,704.6845985217955
2025-05-28 16:00:00+00:00,704.6845985217955
2025-05-28 17:00:00+00:00,704.6845985217955
2025-05-28 18:00:00+00:00,704.6845985217955
2025-05-28 19:00:00+00:00,704.6845985217955
2025-05-29 13:00:00+00:00,704.6845985217955
2025-05-29 14:00:00+00:00,704.6845985217955
2025-05-29 15:00:00+00:00,704.6845985217955
2025-05-29 16:00:00+00:00,704.6845985217955
2025-05-29 17:00:00+00:00,704.6845985217955
2025-05-29 18:00:00+00:00,704.6845985217955
2025-05-29 19:00:00+00:00,704.6845985217955
2025-05-30 13:00:00+00:00,704.6845985217955
2025-05-30 14:00:00+00:00,704.6845985217955
2025-05-30 15:00:00+00:00,704.6845985217955
2025-05-30 16:00:00+00:00,704.6845985217955
2025-05-30 17:00:00+00:00,704.6845985217955
2025-05-30 18:00:00+00:00,704.6845985217955
2025-05-30 19:00:00+00:00,704.6845985217955
2025-06-02 13:00:00+00:00,704.6845985217955
2025-06-02 14:00:00+00:00,704.6845985217955
2025-06-02 15:00:00+00:00,704.6845985217955
2025-06-02 16:00:00+00:00,704.6845985217955
2025-06-02 17:00:00+00:00,704.6845985217955
2025-06-02 18:00:00+00:00,704.6845985217955
2025-06-02 19:00:00+00:00,704.6845985217955
2025-06-03 13:00:00+00:00,704.6845985217955
2025-06-03 14:00:00+00:00,704.6845985217955
2025-06-03 15:00:00+00:00,704.6845985217955
2025-06-03 16:00:00+00:00,704.6845985217955
2025-06-03 17:00:00+00:00,704.6845985217955
2025-06-03 18:00:00+00:00,704.6845985217955
2025-06-03 19:00:00+00:00,704.6845985217955
2025-06-04 13:00:00+00:00,704.6845985217955
2025-06-04 14:00:00+00:00,704.6845985217955
2025-06-04 15:00:00+00:00,704.6845985217955
2025-06-04 16:00:00+00:00,704.6845985217955
2025-06-04 17:00:00+00:00,704.6845985217955
2025-06-04 18:00:00+00:00,704.6845985217955
2025-06-04 19:00:00+00:00,704.6845985217955
2025-06-05 13:00:00+00:00,704.6845985217955
2025-06-05 14:00:00+00:00,704.6845985217955
2025-06-05 15:00:00+00:00,704.6845985217955
2025-06-05 16:00:00+00:00,704.6845985217955
2025-06-05 17:00:00+00:00,704.6845985217955
2025-06-05 18:00:00+00:00,704.6845985217955
2025-06-05 19:00:00+00:00,704.6845985217955
2025-06-06 13:00:00+00:00,704.6845985217955
2025-06-06 14:00:00+00:00,704.6845985217955
2025-06-06 15:00:00+00:00,704.6845985217955
2025-06-06 16:00:00+00:00,704.6845985217955
2025-06-06 17:00:00+00:00,704.6845985217955
2025-06-06 18:00:00+00:00,704.6845985217955
2025-06-06 19:00:00+00:00,704.6845985217955
2025-06-09 13:00:00+00:00,704.6845985217955
2025-06-09 14:00:00+00:00,704.6845985217955
2025-06-09 15:00:00+00:00,704.6845985217955
2025-06-09 16:00:00+00:00,704.6845985217955
2025-06-09 17:00:00+00:00,704.6845985217955
2025-06-09 18:00:00+00:00,704.6845985217955
2025-06-09 19:00:00+00:00,704.6845985217955
2025-06-10 13:00:00+00:00,704.6845985217955
2025-06-10 14:00:00+00:00,704.6845985217955
2025-06-10 15:00:00+00:00,704.6845985217955
2025-06-10 16:00:00+00:00,704.6845985217955
2025-06-10 17:00:00+00:00,704.6845985217955
2025-06-10 18:00:00+00:00,704.6845985217955
2025-06-10 19:00:00+00:00,704.6845985217955
2025-06-11 13:00:00+00:00,704.6845985217955
2025-06-11 14:00:00+00:00,704.6845985217955
2025-06-11 15:00:00+00:00,704.6845985217955
2025-06-11 16:00:00+00:00,704.6845985217955
2025-06-11 18:00:00+00:00,704.6845985217955
2025-06-11 19:00:00+00:00,704.6845985217955
2025-06-12 13:00:00+00:00,704.6845985217955
2025-06-12 14:00:00+00:00,704.6845985217955
2025-06-12 15:00:00+00:00,704.6845985217955
2025-06-12 17:00:00+00:00,704.6845985217955
2025-06-12 18:00:00+00:00,704.6845985217955
2025-06-12 19:00:00+00:00,704.6845985217955
2025-06-13 13:00:00+00:00,704.6845985217955
2025-06-13 14:00:00+00:00,704.6845985217955
2025-06-13 15:00:00+00:00,704.6845985217955
2025-06-13 16:00:00+00:00,704.6845985217955
2025-06-13 17:00:00+00:00,704.6845985217955
2025-06-13 18:00:00+00:00,704.6845985217955
2025-06-13 19:00:00+00:00,704.6845985217955
2025-06-16 13:00:00+00:00,704.6845985217955
2025-06-16 14:00:00+00:00,704.6845985217955
2025-06-16 15:00:00+00:00,704.6845985217955
2025-06-16 16:00:00+00:00,704.6845985217955
2025-06-16 17:00:00+00:00,704.6845985217955
2025-06-16 18:00:00+00:00,704.6845985217955
2025-06-16 19:00:00+00:00,704.6845985217955
2025-06-17 13:00:00+00:00,704.6845985217955
2025-06-17 14:00:00+00:00,704.6845985217955
2025-06-17 15:00:00+00:00,704.6845985217955
2025-06-17 16:00:00+00:00,704.6845985217955
2025-06-17 17:00:00+00:00,704.6845985217955
2025-06-17 18:00:00+00:00,704.6845985217955
2025-06-17 19:00:00+00:00,704.6845985217955
2025-06-18 13:00:00+00:00,704.6845985217955
2025-06-18 15:00:00+00:00,704.6845985217955
2025-06-18 17:00:00+00:00,704.6845985217955
2025-06-18 18:00:00+00:00,704.6845985217955
2025-06-18 19:00:00+00:00,704.6845985217955
2025-06-20 13:00:00+00:00,704.6845985217955
2025-06-20 14:00:00+00:00,704.6845985217955
2025-06-20 15:00:00+00:00,704.6845985217955
2025-06-20 16:00:00+00:00,704.6845985217955
2025-06-20 18:00:00+00:00,704.6845985217955
2025-06-20 19:00:00+00:00,704.6845985217955
2025-06-23 13:00:00+00:00,704.6845985217955
2025-06-23 14:00:00+00:00,704.6845985217955
2025-06-23 16:00:00+00:00,704.6845985217955
2025-06-23 17:00:00+00:00,704.6845985217955
2025-06-23 19:00:00+00:00,704.6845985217955
2025-06-24 13:00:00+00:00,704.6845985217955
2025-06-24 14:00:00+00:00,704.6845985217955
2025-06-25 13:00:00+00:00,704.6845985217955
2025-06-25 14:00:00+00:00,704.6845985217955
2025-06-25 15:00:00+00:00,704.6845985217955
2025-06-25 16:00:00+00:00,704.6845985217955
2025-06-25 17:00:00+00:00,704.6845985217955
2025-06-25 19:00:00+00:00,704.6845985217955
2025-06-26 13:00:00+00:00,704.6845985217955
2025-06-26 14:00:00+00:00,704.6845985217955
2025-06-26 19:00:00+00:00,704.6845985217955
2025-06-27 13:00:00+00:00,704.6845985217955
2025-06-27 14:00:00+00:00,704.6845985217955
2025-06-27 15:00:00+00:00,704.6845985217955
2025-06-27 16:00:00+00:00,704.6845985217955
2025-06-27 17:00:00+00:00,704.6845985217955
2025-06-27 18:00:00+00:00,704.6845985217955
2025-06-27 19:00:00+00:00,704.6845985217955
2025-06-30 13:00:00+00:00,704.6845985217955
2025-06-30 14:00:00+00:00,704.6845985217955
2025-06-30 15:00:00+00:00,704.6845985217955
2025-06-30 16:00:00+00:00,704.6845985217955
2025-06-30 17:00:00+00:00,704.6845985217955
2025-06-30 19:00:00+00:00,704.6845985217955
2025-07-01 13:00:00+00:00,704.6845985217955
2025-07-01 14:00:00+00:00,704.6845985217955
2025-07-01 15:00:00+00:00,704.6845985217955
2025-07-01 16:00:00+00:00,704.6845985217955
2025-07-01 17:00:00+00:00,704.6845985217955
2025-07-01 18:00:00+00:00,704.6845985217955
2025-07-01 19:00:00+00:00,704.6845985217955
2025-07-02 13:00:00+00:00,704.6845985217955
2025-07-02 14:00:00+00:00,704.6845985217955
2025-07-02 15:00:00+00:00,704.6845985217955
2025-07-02 16:00:00+00:00,704.6845985217955
2025-07-02 17:00:00+00:00,704.6845985217955
2025-07-02 18:00:00+00:00,704.6845985217955
2025-07-02 19:00:00+00:00,704.6845985217955
2025-07-03 13:00:00+00:00,704.6845985217955
2025-07-03 14:00:00+00:00,704.6845985217955
2025-07-03 15:00:00+00:00,704.6845985217955
2025-07-07 13:00:00+00:00,704.6845985217955
2025-07-07 14:00:00+00:00,704.6845985217955
2025-07-07 15:00:00+00:00,704.6845985217955
2025-07-07 16:00:00+00:00,704.6845985217955
2025-07-07 17:00:00+00:00,704.6845985217955
2025-07-07 18:00:00+00:00,704.6845985217955
2025-07-07 19:00:00+00:00,704.6845985217955
2025-07-08 13:00:00+00:00,704.6845985217955
2025-07-08 14:00:00+00:00,704.6845985217955
2025-07-08 15:00:00+00:00,704.6845985217955
2025-07-08 16:00:00+00:00,704.6845985217955
2025-07-08 17:00:00+00:00,704.6845985217955
2025-07-08 18:00:00+00:00,704.6845985217955
2025-07-08 19:00:00+00:00,704.6845985217955
2025-07-09 13:00:00+00:00,704.6845985217955
2025-07-09 14:00:00+00:00,704.6845985217955
2025-07-09 15:00:00+00:00,704.6845985217955
2025-07-09 16:00:00+00:00,704.6845985217955
2025-07-09 17:00:00+00:00,704.6845985217955
2025-07-09 18:00:00+00:00,704.6845985217955
2025-07-09 19:00:00+00:00,704.6845985217955
2025-07-10 13:00:00+00:00,704.6845985217955
2025-07-10 14:00:00+00:00,704.6845985217955
2025-07-10 15:00:00+00:00,704.6845985217955
2025-07-10 16:00:00+00:00,704.6845985217955
2025-07-10 17:00:00+00:00,704.6845985217955
2025-07-10 18:00:00+00:00,704.6845985217955
2025-07-10 19:00:00+00:00,704.6845985217955
2025-07-11 13:00:00+00:00,704.6845985217955
2025-07-11 14:00:00+00:00,704.6845985217955
2025-07-11 15:00:00+00:00,704.6845985217955
2025-07-11 16:00:00+00:00,704.6845985217955
2025-07-11 17:00:00+00:00,704.6845985217955
2025-07-11 18:00:00+00:00,704.6845985217955
2025-07-11 19:00:00+00:00,704.6845985217955
2025-07-14 13:00:00+00:00,704.6845985217955
2025-07-14 14:00:00+00:00,704.6845985217955
2025-07-14 15:00:00+00:00,704.6845985217955
2025-07-14 16:00:00+00:00,704.6845985217955
2025-07-14 17:00:00+00:00,704.6845985217955
2025-07-14 19:00:00+00:00,704.6845985217955
2025-07-15 13:00:00+00:00,704.6845985217955
2025-07-15 14:00:00+00:00,704.6845985217955
2025-07-15 15:00:00+00:00,704.6845985217955
2025-07-15 16:00:00+00:00,704.6845985217955
2025-07-15 17:00:00+00:00,704.6845985217955
2025-07-15 19:00:00+00:00,704.6845985217955
2025-07-16 13:00:00+00:00,704.6845985217955
2025-07-16 14:00:00+00:00,704.6845985217955
2025-07-16 15:00:00+00:00,704.6845985217955
2025-07-16 16:00:00+00:00,704.6845985217955
2025-07-16 17:00:00+00:00,704.6845985217955
2025-07-16 19:00:00+00:00,704.6845985217955
2025-07-17 13:00:00+00:00,704.6845985217955
2025-07-17 15:00:00+00:00,704.6845985217955
2025-07-17 16:00:00+00:00,704.6845985217955
2025-07-17 17:00:00+00:00,704.6845985217955
2025-07-18 13:00:00+00:00,704.6845985217955
2025-07-18 17:00:00+00:00,704.6845985217955
2025-07-18 19:00:00+00:00,704.6845985217955
2025-07-21 13:00:00+00:00,704.6845985217955
2025-07-21 14:00:00+00:00,704.6845985217955
2025-07-21 16:00:00+00:00,704.6845985217955
2025-07-21 19:00:00+00:00,704.6845985217955
2025-07-22 13:00:00+00:00,704.6845985217955
2025-07-22 14:00:00+00:00,704.6845985217955
2025-07-22 15:00:00+00:00,704.6845985217955
2025-07-22 18:00:00+00:00,704.6845985217955
2025-07-22 19:00:00+00:00,704.6845985217955
2025-07-23 13:00:00+00:00,704.6845985217955
2025-07-23 14:00:00+00:00,704.6845985217955
2025-07-23 15:00:00+00:00,704.6845985217955
2025-07-23 16:00:00+00:00,704.6845985217955
2025-07-23 17:00:00+00:00,704.6845985217955
2025-07-23 18:00:00+00:00,704.6845985217955
2025-07-23 19:00:00+00:00,704.6845985217955
2025-07-24 13:00:00+00:00,704.6845985217955
2025-07-24 14:00:00+00:00,704.6845985217955
2025-07-24 15:00:00+00:00,704.6845985217955
2025-07-24 16:00:00+00:00,704.6845985217955
2025-07-24 19:00:00+00:00,704.6845985217955
2025-07-25 13:00:00+00:00,704.6845985217955
2025-07-25 14:00:00+00:00,704.6845985217955
2025-07-25 15:00:00+00:00,704.6845985217955
2025-07-25 16:00:00+00:00,704.6845985217955
2025-07-25 17:00:00+00:00,704.6845985217955
2025-07-25 18:00:00+00:00,704.6845985217955
2025-07-28 13:00:00+00:00,704.6845985217955
2025-07-28 14:00:00+00:00,704.6845985217955
2025-07-28 15:00:00+00:00,704.6845985217955
2025-07-28 16:00:00+00:00,704.6845985217955
2025-07-28 17:00:00+00:00,704.6845985217955
2025-07-28 18:00:00+00:00,704.6845985217955
2025-07-28 19:00:00+00:00,704.6845985217955
2025-07-29 13:00:00+00:00,704.6845985217955
2025-07-29 14:00:00+00:00,704.6845985217955
2025-07-29 15:00:00+00:00,704.6845985217955
2025-07-29 16:00:00+00:00,704.6845985217955
2025-07-29 17:00:00+00:00,704.6845985217955
2025-07-29 18:00:00+00:00,704.6845985217955
2025-07-29 19:00:00+00:00,704.6845985217955
2025-07-30 13:00:00+00:00,704.6845985217955
2025-07-30 14:00:00+00:00,704.6845985217955
2025-07-30 15:00:00+00:00,704.6845985217955
2025-07-30 16:00:00+00:00,704.6845985217955
2025-07-30 17:00:00+00:00,704.6845985217955
2025-07-30 18:00:00+00:00,704.6845985217955
2025-07-30 19:00:00+00:00,704.6845985217955
2025-07-31 13:00:00+00:00,704.6845985217955
2025-07-31 16:00:00+00:00,704.6845985217955
2025-07-31 17:00:00+00:00,704.6845985217955
2025-07-31 18:00:00+00:00,704.6845985217955
2025-07-31 19:00:00+00:00,704.6845985217955
2025-08-01 13:00:00+00:00,704.6845985217955
2025-08-01 14:00:00+00:00,704.6845985217955
2025-08-01 15:00:00+00:00,704.6845985217955
2025-08-01 16:00:00+00:00,704.6845985217955
2025-08-01 17:00:00+00:00,704.6845985217955
2025-08-04 13:00:00+00:00,704.6845985217955
2025-08-04 14:00:00+00:00,704.6845985217955
2025-08-04 15:00:00+00:00,704.6845985217955
2025-08-04 17:00:00+00:00,704.6845985217955
2025-08-04 18:00:00+00:00,704.6845985217955
2025-08-04 19:00:00+00:00,704.6845985217955
2025-08-05 13:00:00+00:00,704.6845985217955
2025-08-05 14:00:00+00:00,704.6845985217955
2025-08-05 16:00:00+00:00,704.6845985217955
2025-08-05 17:00:00+00:00,704.6845985217955
2025-08-05 19:00:00+00:00,704.6845985217955
2025-08-06 13:00:00+00:00,704.6845985217955
2025-08-06 15:00:00+00:00,704.6845985217955
2025-08-06 19:00:00+00:00,704.6845985217955
2025-08-07 13:00:00+00:00,704.6845985217955
2025-08-07 14:00:00+00:00,704.6845985217955
2025-08-07 15:00:00+00:00,704.6845985217955
2025-08-07 16:00:00+00:00,704.6845985217955
2025-08-07 17:00:00+00:00,704.6845985217955
2025-08-07 18:00:00+00:00,704.6845985217955
2025-08-07 19:00:00+00:00,704.6845985217955
2025-08-08 13:00:00+00:00,704.6845985217955
2025-08-08 14:00:00+00:00,704.6845985217955
2025-08-08 16:00:00+00:00,704.6845985217955
2025-08-08 17:00:00+00:00,704.6845985217955
2025-08-08 18:00:00+00:00,704.6845985217955
2025-08-08 19:00:00+00:00,704.6845985217955
2025-08-11 13:00:00+00:00,704.6845985217955
2025-08-11 14:00:00+00:00,704.6845985217955
2025-08-11 15:00:00+00:00,704.6845985217955
2025-08-11 18:00:00+00:00,704.6845985217955
2025-08-11 19:00:00+00:00,704.6845985217955
2025-08-12 13:00:00+00:00,704.6845985217955
2025-08-12 14:00:00+00:00,704.6845985217955
2025-08-12 15:00:00+00:00,704.6845985217955
2025-08-12 16:00:00+00:00,704.6845985217955
2025-08-12 17:00:00+00:00,704.6845985217955
2025-08-12 18:00:00+00:00,704.6845985217955
2025-08-13 13:00:00+00:00,704.6845985217955
2025-08-13 14:00:00+00:00,704.6845985217955
2025-08-13 15:00:00+00:00,704.6845985217955
2025-08-13 16:00:00+00:00,704.6845985217955
2025-08-13 18:00:00+00:00,704.6845985217955
2025-08-13 19:00:00+00:00,704.6845985217955
2025-08-14 13:00:00+00:00,704.6845985217955
2025-08-14 14:00:00+00:00,704.6845985217955
2025-08-14 15:00:00+00:00,704.6845985217955
2025-08-14 16:00:00+00:00,704.6845985217955
2025-08-14 18:00:00+00:00,704.6845985217955
2025-08-15 13:00:00+00:00,704.6845985217955
2025-08-15 14:00:00+00:00,704.6845985217955
2025-08-15 16:00:00+00:00,704.6845985217955
2025-08-15 17:00:00+00:00,704.6845985217955
2025-08-15 18:00:00+00:00,704.6845985217955
2025-08-18 13:00:00+00:00,704.6845985217955
2025-08-18 14:00:00+00:00,704.6845985217955
2025-08-18 15:00:00+00:00,704.6845985217955
2025-08-18 16:00:00+00:00,704.6845985217955
2025-08-18 18:00:00+00:00,704.6845985217955
2025-08-18 19:00:00+00:00,704.6845985217955
2025-08-19 13:00:00+00:00,704.6845985217955
2025-08-19 14:00:00+00:00,704.6845985217955
2025-08-19 15:00:00+00:00,704.6845985217955
2025-08-19 17:00:00+00:00,704.6845985217955
2025-08-19 18:00:00+00:00,704.6845985217955
2025-08-19 19:00:00+00:00,704.6845985217955
2025-08-20 13:00:00+00:00,704.6845985217955
2025-08-20 15:00:00+00:00,704.6845985217955
2025-08-20 16:00:00+00:00,704.6845985217955
2025-08-20 17:00:00+00:00,704.6845985217955
2025-08-21 13:00:00+00:00,704.6845985217955
2025-08-21 14:00:00+00:00,704.6845985217955
2025-08-21 18:00:00+00:00,704.6845985217955
2025-08-21 19:00:00+00:00,704.6845985217955
2025-08-22 13:00:00+00:00,704.6845985217955
2025-08-22 14:00:00+00:00,704.6845985217955
2025-08-22 15:00:00+00:00,704.6845985217955
2025-08-22 16:00:00+00:00,704.6845985217955
2025-08-22 18:00:00+00:00,704.6845985217955
2025-08-22 19:00:00+00:00,704.6845985217955
2025-08-25 13:00:00+00:00,704.6845985217955
2025-08-25 14:00:00+00:00,704.6845985217955
2025-08-25 15:00:00+00:00,704.6845985217955
2025-08-25 17:00:00+00:00,704.6845985217955
2025-08-26 13:00:00+00:00,704.6845985217955
2025-08-26 14:00:00+00:00,704.6845985217955
2025-08-26 18:00:00+00:00,704.6845985217955
2025-08-26 19:00:00+00:00,704.6845985217955
2025-08-27 13:00:00+00:00,704.6845985217955
2025-08-27 14:00:00+00:00,704.6845985217955
2025-08-27 15:00:00+00:00,704.6845985217955
2025-08-27 16:00:00+00:00,704.6845985217955
2025-08-27 17:00:00+00:00,704.6845985217955
2025-08-27 18:00:00+00:00,704.6845985217955
2025-08-27 19:00:00+00:00,704.6845985217955
2025-08-28 14:00:00+00:00,704.6845985217955
2025-08-28 18:00:00+00:00,704.6845985217955
2025-08-28 19:00:00+00:00,704.6845985217955
2025-08-29 15:00:00+00:00,704.6845985217955
2025-08-29 16:00:00+00:00,704.6845985217955
2025-08-29 19:00:00+00:00,704.6845985217955
2025-09-02 13:00:00+00:00,704.6845985217955
2025-09-02 14:00:00+00:00,704.6845985217955
2025-09-02 15:00:00+00:00,704.6845985217955
2025-09-02 18:00:00+00:00,704.6845985217955
2025-09-02 19:00:00+00:00,704.6845985217955
2025-09-03 13:00:00+00:00,704.6845985217955
2025-09-03 15:00:00+00:00,704.6845985217955
2025-09-03 16:00:00+00:00,704.6845985217955
2025-09-03 17:00:00+00:00,704.6845985217955
2025-09-04 13:00:00+00:00,704.6845985217955
2025-09-04 14:00:00+00:00,704.6845985217955
2025-09-04 18:00:00+00:00,704.6845985217955
2025-09-05 13:00:00+00:00,704.6845985217955
2025-09-05 14:00:00+00:00,704.6845985217955
2025-09-05 15:00:00+00:00,704.6845985217955
2025-09-05 16:00:00+00:00,704.6845985217955
2025-09-05 17:00:00+00:00,704.6845985217955
2025-09-05 18:00:00+00:00,704.6845985217955
2025-09-08 13:00:00+00:00,704.6845985217955
2025-09-08 14:00:00+00:00,704.6845985217955
2025-09-08 15:00:00+00:00,704.6845985217955
2025-09-08 18:00:00+00:00,704.6845985217955
2025-09-08 19:00:00+00:00,704.6845985217955
2025-09-09 13:00:00+00:00,704.6845985217955
2025-09-09 14:00:00+00:00,704.6845985217955
2025-09-09 15:00:00+00:00,704.6845985217955
2025-09-09 17:00:00+00:00,704.6845985217955
2025-09-09 18:00:00+00:00,704.6845985217955
2025-09-09 19:00:00+00:00,704.6845985217955
2025-09-10 13:00:00+00:00,704.6845985217955
2025-09-10 14:00:00+00:00,704.6845985217955
2025-09-10 15:00:00+00:00,704.6845985217955
2025-09-10 17:00:00+00:00,704.6845985217955
2025-09-11 13:00:00+00:00,704.6845985217955
2025-09-11 14:00:00+00:00,704.6845985217955
2025-09-11 18:00:00+00:00,704.6845985217955
2025-09-11 19:00:00+00:00,704.6845985217955
2025-09-12 13:00:00+00:00,704.6845985217955
2025-09-12 14:00:00+00:00,704.6845985217955
2025-09-12 15:00:00+00:00,704.6845985217955
2025-09-12 16:00:00+00:00,704.6845985217955
2025-09-12 17:00:00+00:00,704.6845985217955
2025-09-12 18:00:00+00:00,704.6845985217955
2025-09-12 19:00:00+00:00,704.6845985217955
2025-09-15 13:00:00+00:00,704.6845985217955
2025-09-15 14:00:00+00:00,704.6845985217955
2025-09-15 17:00:00+00:00,704.6845985217955
2025-09-15 18:00:00+00:00,704.6845985217955
2025-09-15 19:00:00+00:00,704.6845985217955
2025-09-16 13:00:00+00:00,704.6845985217955
2025-09-16 18:00:00+00:00,704.6845985217955
2025-09-17 13:00:00+00:00,704.6845985217955
2025-09-17 16:00:00+00:00,704.6845985217955
2025-09-17 17:00:00+00:00,704.6845985217955
2025-09-17 18:00:00+00:00,704.6845985217955
2025-09-17 19:00:00+00:00,704.6845985217955
2025-09-18 13:00:00+00:00,704.6845985217955
2025-09-18 14:00:00+00:00,704.6845985217955
2025-09-18 16:00:00+00:00,704.6845985217955
2025-09-18 18:00:00+00:00,704.6845985217955
2025-09-19 13:00:00+00:00,704.6845985217955
2025-09-19 15:00:00+00:00,704.6845985217955
2025-09-19 17:00:00+00:00,704.6845985217955
2025-09-19 19:00:00+00:00,704.6845985217955
2025-09-22 13:00:00+00:00,704.6845985217955
2025-09-22 14:00:00+00:00,704.6845985217955
2025-09-22 15:00:00+00:00,704.6845985217955
2025-09-22 18:00:00+00:00,704.6845985217955
2025-09-22 19:00:00+00:00,704.6845985217955
2025-09-23 13:00:00+00:00,704.6845985217955
2025-09-23 14:00:00+00:00,704.6845985217955
2025-09-23 15:00:00+00:00,704.6845985217955
2025-09-23 19:00:00+00:00,704.6845985217955
2025-09-24 15:00:00+00:00,704.6845985217955
2025-09-24 17:00:00+00:00,704.6845985217955
2025-09-24 18:00:00+00:00,704.6845985217955
2025-09-24 19:00:00+00:00,704.6845985217955
2025-09-25 13:00:00+00:00,704.6845985217955
2025-09-25 15:00:00+00:00,704.6845985217955
2025-09-25 17:00:00+00:00,704.6845985217955
2025-09-25 18:00:00+00:00,704.6845985217955
2025-09-26 13:00:00+00:00,704.6845985217955
2025-09-26 14:00:00+00:00,704.6845985217955
2025-09-26 17:00:00+00:00,704.6845985217955
2025-09-26 18:00:00+00:00,704.6845985217955
2025-09-26 19:00:00+00:00,704.6845985217955
2025-09-29 13:00:00+00:00,704.6845985217955
2025-09-29 14:00:00+00:00,704.6845985217955
2025-09-29 16:00:00+00:00,704.6845985217955
2025-09-29 17:00:00+00:00,704.6845985217955
2025-09-29 18:00:00+00:00,704.6845985217955
2025-09-29 19:00:00+00:00,704.6845985217955
2025-09-30 13:00:00+00:00,704.6845985217955
2025-09-30 14:00:00+00:00,704.6845985217955
2025-09-30 15:00:00+00:00,704.6845985217955
2025-09-30 16:00:00+00:00,704.6845985217955
2025-09-30 18:00:00+00:00,704.6845985217955
2025-09-30 19:00:00+00:00,704.6845985217955
2025-10-01 13:00:00+00:00,704.6845985217955
2025-10-01 14:00:00+00:00,704.6845985217955
2025-10-01 16:00:00+00:00,704.6845985217955
2025-10-01 19:00:00+00:00,704.6845985217955
2025-10-02 13:00:00+00:00,704.6845985217955
2025-10-02 14:00:00+00:00,704.6845985217955
2025-10-02 15:00:00+00:00,704.6845985217955
2025-10-02 16:00:00+00:00,704.6845985217955
2025-10-02 17:00:00+00:00,704.6845985217955
2025-10-02 18:00:00+00:00,704.6845985217955
2025-10-02 19:00:00+00:00,704.6845985217955
2025-10-03 13:00:00+00:00,704.6845985217955
2025-10-03 14:00:00+00:00,704.6845985217955
2025-10-03 15:00:00+00:00,704.6845985217955
2025-10-03 16:00:00+00:00,704.6845985217955
2025-10-03 17:00:00+00:00,704.6845985217955
2025-10-03 19:00:00+00:00,704.6845985217955
2025-10-06 13:00:00+00:00,704.6845985217955
2025-10-06 14:00:00+00:00,704.6845985217955
2025-10-06 15:00:00+00:00,704.6845985217955
2025-10-06 16:00:00+00:00,704.6845985217955
2025-10-06 17:00:00+00:00,704.6845985217955
2025-10-06 18:00:00+00:00,704.6845985217955
2025-10-06 19:00:00+00:00,704.6845985217955
2025-10-07 13:00:00+00:00,704.6845985217955
2025-10-07 14:00:00+00:00,704.6845985217955
2025-10-07 15:00:00+00:00,704.6845985217955
2025-10-07 16:00:00+00:00,704.6845985217955
2025-10-07 17:00:00+00:00,704.6845985217955
2025-10-07 18:00:00+00:00,704.6845985217955
2025-10-07 19:00:00+00:00,704.6845985217955
2025-10-08 13:00:00+00:00,704.6845985217955
2025-10-08 14:00:00+00:00,704.6845985217955
2025-10-08 15:00:00+00:00,704.6845985217955
2025-10-08 18:00:00+00:00,704.6845985217955
2025-10-08 19:00:00+00:00,704.6845985217955
2025-10-09 13:00:00+00:00,704.6845985217955
2025-10-09 14:00:00+00:00,704.6845985217955
2025-10-09 15:00:00+00:00,704.6845985217955
2025-10-09 18:00:00+00:00,704.6845985217955
2025-10-10 13:00:00+00:00,704.6845985217955
2025-10-10 14:00:00+00:00,704.6845985217955
2025-10-10 15:00:00+00:00,704.6845985217955
2025-10-10 16:00:00+00:00,704.6845985217955
2025-10-10 18:00:00+00:00,704.6845985217955
2025-10-13 13:00:00+00:00,704.6845985217955
2025-10-13 14:00:00+00:00,704.6845985217955
2025-10-13 15:00:00+00:00,704.6845985217955
2025-10-13 16:00:00+00:00,704.6845985217955
2025-10-13 18:00:00+00:00,704.6845985217955
2025-10-13 19:00:00+00:00,704.6845985217955
2025-10-14 13:00:00+00:00,704.6845985217955
2025-10-14 14:00:00+00:00,704.6845985217955
2025-10-14 16:00:00+00:00,704.6845985217955
2025-10-14 17:00:00+00:00,704.6845985217955
2025-10-14 18:00:00+00:00,704.6845985217955
2025-10-14 19:00:00+00:00,704.6845985217955
2025-10-15 13:00:00+00:00,704.6845985217955
2025-10-15 14:00:00+00:00,704.6845985217955
2025-10-15 15:00:00+00:00,704.6845985217955
2025-10-15 18:00:00+00:00,704.6845985217955
2025-10-15 19:00:00+00:00,704.6845985217955
2025-10-16 13:00:00+00:00,704.6845985217955
2025-10-16 14:00:00+00:00,704.6845985217955
2025-10-16 15:00:00+00:00,704.6845985217955
2025-10-16 16:00:00+00:00,704.6845985217955
2025-10-16 17:00:00+00:00,704.6845985217955
2025-10-16 18:00:00+00:00,704.6845985217955
2025-10-16 19:00:00+00:00,704.6845985217955
2025-10-17 13:00:00+00:00,704.6845985217955
2025-10-17 14:00:00+00:00,704.6845985217955
2025-10-17 15:00:00+00:00,704.6845985217955
2025-10-17 17:00:00+00:00,704.6845985217955
2025-10-17 18:00:00+00:00,704.6845985217955
2025-10-20 13:00:00+00:00,704.6845985217955
2025-10-20 14:00:00+00:00,704.6845985217955
2025-10-20 17:00:00+00:00,704.6845985217955
2025-10-20 18:00:00+00:00,704.6845985217955
2025-10-21 13:00:00+00:00,704.6845985217955
2025-10-21 14:00:00+00:00,704.6845985217955
2025-10-21 16:00:00+00:00,704.6845985217955
2025-10-21 17:00:00+00:00,704.6845985217955
2025-10-21 18:00:00+00:00,704.6845985217955
2025-10-21 19:00:00+00:00,704.6845985217955
2025-10-22 13:00:00+00:00,704.6845985217955
2025-10-22 14:00:00+00:00,704.6845985217955
2025-10-22 16:00:00+00:00,704.6845985217955
2025-10-22 17:00:00+00:00,704.6845985217955
2025-10-22 18:00:00+00:00,704.6845985217955
2025-10-22 19:00:00+00:00,704.6845985217955
