Date,0
2024-01-02 14:00:00+00:00,0.0
2024-01-02 15:00:00+00:00,0.0
2024-01-02 16:00:00+00:00,0.0
2024-01-02 17:00:00+00:00,0.0
2024-01-02 18:00:00+00:00,0.0
2024-01-02 19:00:00+00:00,0.0
2024-01-02 20:00:00+00:00,0.0
2024-01-03 14:00:00+00:00,0.0
2024-01-03 15:00:00+00:00,0.0
2024-01-03 16:00:00+00:00,0.0
2024-01-03 17:00:00+00:00,0.0
2024-01-03 18:00:00+00:00,0.0
2024-01-03 19:00:00+00:00,0.0
2024-01-03 20:00:00+00:00,0.0
2024-01-04 14:00:00+00:00,0.0
2024-01-04 15:00:00+00:00,0.0
2024-01-04 16:00:00+00:00,0.0
2024-01-04 17:00:00+00:00,0.0
2024-01-04 18:00:00+00:00,0.0
2024-01-04 19:00:00+00:00,0.0
2024-01-04 20:00:00+00:00,0.0
2024-01-05 14:00:00+00:00,0.0
2024-01-05 15:00:00+00:00,0.0
2024-01-05 16:00:00+00:00,0.0
2024-01-05 17:00:00+00:00,0.0
2024-01-05 18:00:00+00:00,0.0
2024-01-05 19:00:00+00:00,0.0
2024-01-05 20:00:00+00:00,0.0
2024-01-08 14:00:00+00:00,0.0
2024-01-08 15:00:00+00:00,0.0
2024-01-08 16:00:00+00:00,0.0
2024-01-08 17:00:00+00:00,0.0
2024-01-08 18:00:00+00:00,0.0
2024-01-08 19:00:00+00:00,0.0
2024-01-08 20:00:00+00:00,0.0
2024-01-09 14:00:00+00:00,0.0
2024-01-09 15:00:00+00:00,0.0
2024-01-09 16:00:00+00:00,0.0
2024-01-09 17:00:00+00:00,0.0
2024-01-09 18:00:00+00:00,0.0
2024-01-09 19:00:00+00:00,0.0
2024-01-09 20:00:00+00:00,0.0
2024-01-10 14:00:00+00:00,0.0
2024-01-10 15:00:00+00:00,0.0
2024-01-10 16:00:00+00:00,0.0
2024-01-10 17:00:00+00:00,0.0
2024-01-10 18:00:00+00:00,0.0
2024-01-10 19:00:00+00:00,0.0
2024-01-10 20:00:00+00:00,0.0
2024-01-11 14:00:00+00:00,0.0
2024-01-11 15:00:00+00:00,0.0
2024-01-11 16:00:00+00:00,0.0
2024-01-11 17:00:00+00:00,0.0
2024-01-11 18:00:00+00:00,0.0
2024-01-11 19:00:00+00:00,0.0
2024-01-11 20:00:00+00:00,0.0
2024-01-12 14:00:00+00:00,0.0
2024-01-12 15:00:00+00:00,0.0
2024-01-12 16:00:00+00:00,0.0
2024-01-12 17:00:00+00:00,0.0
2024-01-12 18:00:00+00:00,0.0
2024-01-12 19:00:00+00:00,0.0
2024-01-12 20:00:00+00:00,0.0
2024-01-16 14:00:00+00:00,0.0
2024-01-16 15:00:00+00:00,0.0
2024-01-16 16:00:00+00:00,0.0
2024-01-16 17:00:00+00:00,0.0
2024-01-16 18:00:00+00:00,0.0
2024-01-16 19:00:00+00:00,0.0
2024-01-16 20:00:00+00:00,0.0
2024-01-17 14:00:00+00:00,0.0
2024-01-17 15:00:00+00:00,0.0
2024-01-17 16:00:00+00:00,0.0
2024-01-17 17:00:00+00:00,0.0
2024-01-17 18:00:00+00:00,0.0
2024-01-17 19:00:00+00:00,0.0
2024-01-17 20:00:00+00:00,0.0
2024-01-18 14:00:00+00:00,0.0
2024-01-18 15:00:00+00:00,0.0
2024-01-18 16:00:00+00:00,0.0
2024-01-18 17:00:00+00:00,0.0
2024-01-18 18:00:00+00:00,0.0
2024-01-18 19:00:00+00:00,0.0
2024-01-18 20:00:00+00:00,0.0
2024-01-19 14:00:00+00:00,0.0
2024-01-19 15:00:00+00:00,0.0
2024-01-19 16:00:00+00:00,0.0
2024-01-19 17:00:00+00:00,0.0
2024-01-19 18:00:00+00:00,0.0
2024-01-19 19:00:00+00:00,0.0
2024-01-19 20:00:00+00:00,0.0
2024-01-22 14:00:00+00:00,0.0
2024-01-22 15:00:00+00:00,0.0
2024-01-22 16:00:00+00:00,0.0
2024-01-22 17:00:00+00:00,0.0
2024-01-22 18:00:00+00:00,0.0
2024-01-22 19:00:00+00:00,0.0
2024-01-22 20:00:00+00:00,0.0
2024-01-23 14:00:00+00:00,0.0
2024-01-23 15:00:00+00:00,0.0
2024-01-23 16:00:00+00:00,0.0
2024-01-23 17:00:00+00:00,0.0
2024-01-23 18:00:00+00:00,0.0
2024-01-23 19:00:00+00:00,0.0
2024-01-23 20:00:00+00:00,0.0
2024-01-24 14:00:00+00:00,0.0
2024-01-24 15:00:00+00:00,0.0
2024-01-24 16:00:00+00:00,0.0
2024-01-24 17:00:00+00:00,0.0
2024-01-24 18:00:00+00:00,0.0
2024-01-24 19:00:00+00:00,0.0
2024-01-24 20:00:00+00:00,0.0
2024-01-25 14:00:00+00:00,0.0
2024-01-25 15:00:00+00:00,0.0
2024-01-25 16:00:00+00:00,0.0
2024-01-25 17:00:00+00:00,0.0
2024-01-25 18:00:00+00:00,0.0
2024-01-25 19:00:00+00:00,0.0
2024-01-25 20:00:00+00:00,0.0
2024-01-26 14:00:00+00:00,0.0
2024-01-26 15:00:00+00:00,0.0
2024-01-26 16:00:00+00:00,0.0
2024-01-26 17:00:00+00:00,0.0
2024-01-26 18:00:00+00:00,0.0
2024-01-26 19:00:00+00:00,0.0
2024-01-26 20:00:00+00:00,0.0
2024-01-29 14:00:00+00:00,0.0
2024-01-29 15:00:00+00:00,0.0
2024-01-29 16:00:00+00:00,0.0
2024-01-29 17:00:00+00:00,0.0
2024-01-29 18:00:00+00:00,0.0
2024-01-29 19:00:00+00:00,0.0
2024-01-29 20:00:00+00:00,0.0
2024-01-30 14:00:00+00:00,0.0
2024-01-30 15:00:00+00:00,0.0
2024-01-30 16:00:00+00:00,0.0
2024-01-30 17:00:00+00:00,0.0
2024-01-30 18:00:00+00:00,0.0
2024-01-30 19:00:00+00:00,0.0
2024-01-30 20:00:00+00:00,0.0
2024-01-31 14:00:00+00:00,0.0
2024-01-31 15:00:00+00:00,0.0
2024-01-31 16:00:00+00:00,0.0
2024-01-31 17:00:00+00:00,0.0
2024-01-31 18:00:00+00:00,0.0
2024-01-31 19:00:00+00:00,0.0
2024-01-31 20:00:00+00:00,0.0
2024-02-01 14:00:00+00:00,0.0
2024-02-01 15:00:00+00:00,0.0
2024-02-01 16:00:00+00:00,0.0
2024-02-01 17:00:00+00:00,0.0
2024-02-01 18:00:00+00:00,0.0
2024-02-01 19:00:00+00:00,0.0
2024-02-01 20:00:00+00:00,0.0
2024-02-02 14:00:00+00:00,0.0
2024-02-02 15:00:00+00:00,0.0
2024-02-02 16:00:00+00:00,0.0
2024-02-02 17:00:00+00:00,0.0
2024-02-02 18:00:00+00:00,0.0
2024-02-02 19:00:00+00:00,0.0
2024-02-02 20:00:00+00:00,0.0
2024-02-05 14:00:00+00:00,0.0
2024-02-05 15:00:00+00:00,0.0
2024-02-05 16:00:00+00:00,0.0
2024-02-05 17:00:00+00:00,0.0
2024-02-05 18:00:00+00:00,0.0
2024-02-05 19:00:00+00:00,0.0
2024-02-05 20:00:00+00:00,0.0
2024-02-06 14:00:00+00:00,0.0
2024-02-06 15:00:00+00:00,0.0
2024-02-06 16:00:00+00:00,0.0
2024-02-06 17:00:00+00:00,0.0
2024-02-06 18:00:00+00:00,0.0
2024-02-06 19:00:00+00:00,0.0
2024-02-06 20:00:00+00:00,0.0
2024-02-07 14:00:00+00:00,0.0
2024-02-07 15:00:00+00:00,0.0
2024-02-07 16:00:00+00:00,0.0
2024-02-07 17:00:00+00:00,0.0
2024-02-07 18:00:00+00:00,0.0
2024-02-07 19:00:00+00:00,0.0
2024-02-07 20:00:00+00:00,0.0
2024-02-08 14:00:00+00:00,0.0
2024-02-08 15:00:00+00:00,0.0
2024-02-08 16:00:00+00:00,0.0
2024-02-08 17:00:00+00:00,0.0
2024-02-08 18:00:00+00:00,0.0
2024-02-08 19:00:00+00:00,0.0
2024-02-08 20:00:00+00:00,0.0
2024-02-09 14:00:00+00:00,0.0
2024-02-09 15:00:00+00:00,0.0
2024-02-09 16:00:00+00:00,0.0
2024-02-09 17:00:00+00:00,0.0
2024-02-09 18:00:00+00:00,0.0
2024-02-09 19:00:00+00:00,0.0
2024-02-09 20:00:00+00:00,0.0
2024-02-12 14:00:00+00:00,0.0
2024-02-12 15:00:00+00:00,0.0
2024-02-12 16:00:00+00:00,0.0
2024-02-12 17:00:00+00:00,0.0
2024-02-12 18:00:00+00:00,0.0
2024-02-12 19:00:00+00:00,0.0
2024-02-12 20:00:00+00:00,0.0
2024-02-13 14:00:00+00:00,0.0
2024-02-13 15:00:00+00:00,0.0
2024-02-13 16:00:00+00:00,0.0
2024-02-13 17:00:00+00:00,0.0
2024-02-13 18:00:00+00:00,0.0
2024-02-13 19:00:00+00:00,0.0
2024-02-13 20:00:00+00:00,0.0
2024-02-14 14:00:00+00:00,0.0
2024-02-14 15:00:00+00:00,0.0
2024-02-14 16:00:00+00:00,0.0
2024-02-14 17:00:00+00:00,0.0
2024-02-14 18:00:00+00:00,0.0
2024-02-14 19:00:00+00:00,0.0
2024-02-14 20:00:00+00:00,0.0
2024-02-15 14:00:00+00:00,0.0
2024-02-15 15:00:00+00:00,0.0
2024-02-15 16:00:00+00:00,0.0
2024-02-15 17:00:00+00:00,0.0
2024-02-15 18:00:00+00:00,0.0
2024-02-15 19:00:00+00:00,0.0
2024-02-15 20:00:00+00:00,0.0
2024-02-16 14:00:00+00:00,0.0
2024-02-16 15:00:00+00:00,0.0
2024-02-16 16:00:00+00:00,0.0
2024-02-16 17:00:00+00:00,0.0
2024-02-16 18:00:00+00:00,0.0
2024-02-16 19:00:00+00:00,0.0
2024-02-16 20:00:00+00:00,0.0
2024-02-20 14:00:00+00:00,0.0
2024-02-20 15:00:00+00:00,0.0
2024-02-20 16:00:00+00:00,0.0
2024-02-20 17:00:00+00:00,0.0
2024-02-20 18:00:00+00:00,0.0
2024-02-20 19:00:00+00:00,0.0
2024-02-20 20:00:00+00:00,0.0
2024-02-21 14:00:00+00:00,0.0
2024-02-21 15:00:00+00:00,0.0
2024-02-21 16:00:00+00:00,0.0
2024-02-21 17:00:00+00:00,0.0
2024-02-21 18:00:00+00:00,0.0
2024-02-21 19:00:00+00:00,0.0
2024-02-21 20:00:00+00:00,0.0
2024-02-22 14:00:00+00:00,0.0
2024-02-22 15:00:00+00:00,0.0
2024-02-22 16:00:00+00:00,0.0
2024-02-22 17:00:00+00:00,0.0
2024-02-22 18:00:00+00:00,0.0
2024-02-22 19:00:00+00:00,0.0
2024-02-22 20:00:00+00:00,0.0
2024-02-23 14:00:00+00:00,0.0
2024-02-23 15:00:00+00:00,0.0
2024-02-23 16:00:00+00:00,0.0
2024-02-23 17:00:00+00:00,0.0
2024-02-23 18:00:00+00:00,0.0
2024-02-23 19:00:00+00:00,0.0
2024-02-23 20:00:00+00:00,0.0
2024-02-26 14:00:00+00:00,0.0
2024-02-26 15:00:00+00:00,0.0
2024-02-26 16:00:00+00:00,0.0
2024-02-26 17:00:00+00:00,0.0
2024-02-26 18:00:00+00:00,0.0
2024-02-26 19:00:00+00:00,0.0
2024-02-26 20:00:00+00:00,0.0
2024-02-27 14:00:00+00:00,0.0
2024-02-27 15:00:00+00:00,0.0
2024-02-27 16:00:00+00:00,0.0
2024-02-27 17:00:00+00:00,0.0
2024-02-27 18:00:00+00:00,0.0
2024-02-27 19:00:00+00:00,0.0
2024-02-27 20:00:00+00:00,0.0
2024-02-28 14:00:00+00:00,0.0
2024-02-28 15:00:00+00:00,0.0
2024-02-28 16:00:00+00:00,0.0
2024-02-28 17:00:00+00:00,0.0
2024-02-28 18:00:00+00:00,0.0
2024-02-28 19:00:00+00:00,0.0
2024-02-28 20:00:00+00:00,0.0
2024-02-29 14:00:00+00:00,0.0
2024-02-29 15:00:00+00:00,0.0
2024-02-29 16:00:00+00:00,0.0
2024-02-29 17:00:00+00:00,0.0
2024-02-29 18:00:00+00:00,0.0
2024-02-29 19:00:00+00:00,0.0
2024-02-29 20:00:00+00:00,0.0
2024-03-01 14:00:00+00:00,0.0
2024-03-01 15:00:00+00:00,0.0
2024-03-01 16:00:00+00:00,0.0
2024-03-01 17:00:00+00:00,0.0
2024-03-01 18:00:00+00:00,0.0
2024-03-01 19:00:00+00:00,0.0
2024-03-01 20:00:00+00:00,0.0
2024-03-04 14:00:00+00:00,0.0
2024-03-04 15:00:00+00:00,0.0
2024-03-04 16:00:00+00:00,0.0
2024-03-04 17:00:00+00:00,0.0
2024-03-04 18:00:00+00:00,0.0
2024-03-04 19:00:00+00:00,0.0
2024-03-04 20:00:00+00:00,0.0
2024-03-05 14:00:00+00:00,0.0
2024-03-05 15:00:00+00:00,0.0
2024-03-05 16:00:00+00:00,0.0
2024-03-05 17:00:00+00:00,0.0
2024-03-05 18:00:00+00:00,0.0
2024-03-05 19:00:00+00:00,0.0
2024-03-05 20:00:00+00:00,0.0
2024-03-06 14:00:00+00:00,0.0
2024-03-06 15:00:00+00:00,0.0
2024-03-06 16:00:00+00:00,0.0
2024-03-06 17:00:00+00:00,0.0
2024-03-06 18:00:00+00:00,0.0
2024-03-06 19:00:00+00:00,0.0
2024-03-06 20:00:00+00:00,0.0
2024-03-07 14:00:00+00:00,0.0
2024-03-07 15:00:00+00:00,0.0
2024-03-07 16:00:00+00:00,0.0
2024-03-07 17:00:00+00:00,0.0
2024-03-07 18:00:00+00:00,0.0
2024-03-07 19:00:00+00:00,0.0
2024-03-07 20:00:00+00:00,0.0
2024-03-08 14:00:00+00:00,0.0
2024-03-08 15:00:00+00:00,0.0
2024-03-08 16:00:00+00:00,0.0
2024-03-08 17:00:00+00:00,0.0
2024-03-08 18:00:00+00:00,0.0
2024-03-08 19:00:00+00:00,0.0
2024-03-08 20:00:00+00:00,0.0
2024-03-11 13:00:00+00:00,0.0
2024-03-11 14:00:00+00:00,0.0
2024-03-11 15:00:00+00:00,0.0
2024-03-11 16:00:00+00:00,0.0
2024-03-11 17:00:00+00:00,0.0
2024-03-11 18:00:00+00:00,0.0
2024-03-11 19:00:00+00:00,0.0
2024-03-12 13:00:00+00:00,0.0
2024-03-12 14:00:00+00:00,0.0
2024-03-12 15:00:00+00:00,0.0
2024-03-12 16:00:00+00:00,0.0
2024-03-12 17:00:00+00:00,0.0
2024-03-12 18:00:00+00:00,0.0
2024-03-12 19:00:00+00:00,0.0
2024-03-13 13:00:00+00:00,0.0
2024-03-13 14:00:00+00:00,0.0
2024-03-13 15:00:00+00:00,0.0
2024-03-13 16:00:00+00:00,0.0
2024-03-13 17:00:00+00:00,0.0
2024-03-13 18:00:00+00:00,0.0
2024-03-13 19:00:00+00:00,0.0
2024-03-14 13:00:00+00:00,0.0
2024-03-14 14:00:00+00:00,0.0
2024-03-14 15:00:00+00:00,0.0
2024-03-14 16:00:00+00:00,0.0
2024-03-14 17:00:00+00:00,0.0
2024-03-14 18:00:00+00:00,0.0
2024-03-14 19:00:00+00:00,0.0
2024-03-15 13:00:00+00:00,0.0
2024-03-15 14:00:00+00:00,0.0
2024-03-15 15:00:00+00:00,0.0
2024-03-15 16:00:00+00:00,0.0
2024-03-15 17:00:00+00:00,0.0
2024-03-15 18:00:00+00:00,0.0
2024-03-15 19:00:00+00:00,0.0
2024-03-18 13:00:00+00:00,0.0
2024-03-18 14:00:00+00:00,0.0
2024-03-18 15:00:00+00:00,0.0
2024-03-18 16:00:00+00:00,0.0
2024-03-18 17:00:00+00:00,0.0
2024-03-18 18:00:00+00:00,0.0
2024-03-18 19:00:00+00:00,0.0
2024-03-19 13:00:00+00:00,0.0
2024-03-19 14:00:00+00:00,0.0
2024-03-19 15:00:00+00:00,0.0
2024-03-19 16:00:00+00:00,0.0
2024-03-19 17:00:00+00:00,0.0
2024-03-19 18:00:00+00:00,0.0
2024-03-19 19:00:00+00:00,0.0
2024-03-20 13:00:00+00:00,0.0
2024-03-20 14:00:00+00:00,0.0
2024-03-20 15:00:00+00:00,0.0
2024-03-20 16:00:00+00:00,0.0
2024-03-20 17:00:00+00:00,0.0
2024-03-20 18:00:00+00:00,0.0
2024-03-20 19:00:00+00:00,0.0
2024-03-21 13:00:00+00:00,0.0
2024-03-21 14:00:00+00:00,0.0
2024-03-21 15:00:00+00:00,0.0
2024-03-21 16:00:00+00:00,0.0
2024-03-21 17:00:00+00:00,0.0
2024-03-21 18:00:00+00:00,0.0
2024-03-21 19:00:00+00:00,0.0
2024-03-22 13:00:00+00:00,0.0
2024-03-22 14:00:00+00:00,0.0
2024-03-22 15:00:00+00:00,0.0
2024-03-22 16:00:00+00:00,0.0
2024-03-22 17:00:00+00:00,0.0
2024-03-22 18:00:00+00:00,0.0
2024-03-22 19:00:00+00:00,0.0
2024-03-25 13:00:00+00:00,0.0
2024-03-25 14:00:00+00:00,0.0
2024-03-25 15:00:00+00:00,0.0
2024-03-25 16:00:00+00:00,0.0
2024-03-25 17:00:00+00:00,0.0
2024-03-25 18:00:00+00:00,0.0
2024-03-25 19:00:00+00:00,0.0
2024-03-26 13:00:00+00:00,0.0
2024-03-26 14:00:00+00:00,0.0
2024-03-26 15:00:00+00:00,0.0
2024-03-26 16:00:00+00:00,0.0
2024-03-26 17:00:00+00:00,0.0
2024-03-26 18:00:00+00:00,0.0
2024-03-26 19:00:00+00:00,0.0
2024-03-27 13:00:00+00:00,0.0
2024-03-27 14:00:00+00:00,0.0
2024-03-27 15:00:00+00:00,0.0
2024-03-27 16:00:00+00:00,0.0
2024-03-27 17:00:00+00:00,0.0
2024-03-27 18:00:00+00:00,0.0
2024-03-27 19:00:00+00:00,0.0
2024-03-28 13:00:00+00:00,0.0
2024-03-28 14:00:00+00:00,0.0
2024-03-28 15:00:00+00:00,0.0
2024-03-28 16:00:00+00:00,0.0
2024-03-28 17:00:00+00:00,0.0
2024-03-28 18:00:00+00:00,0.0
2024-03-28 19:00:00+00:00,0.0
2024-04-01 13:00:00+00:00,0.0
2024-04-01 14:00:00+00:00,0.0
2024-04-01 15:00:00+00:00,0.0
2024-04-01 16:00:00+00:00,0.0
2024-04-01 17:00:00+00:00,0.0
2024-04-01 18:00:00+00:00,0.0
2024-04-01 19:00:00+00:00,0.0
2024-04-02 13:00:00+00:00,0.0
2024-04-02 14:00:00+00:00,0.0
2024-04-02 15:00:00+00:00,0.0
2024-04-02 16:00:00+00:00,0.0
2024-04-02 17:00:00+00:00,0.0
2024-04-02 18:00:00+00:00,0.0
2024-04-02 19:00:00+00:00,0.0
2024-04-03 13:00:00+00:00,0.0
2024-04-03 14:00:00+00:00,0.0
2024-04-03 15:00:00+00:00,0.0
2024-04-03 16:00:00+00:00,0.0
2024-04-03 17:00:00+00:00,0.0
2024-04-03 18:00:00+00:00,0.0
2024-04-03 19:00:00+00:00,0.0
2024-04-04 13:00:00+00:00,0.0
2024-04-04 14:00:00+00:00,0.0
2024-04-04 15:00:00+00:00,0.0
2024-04-04 16:00:00+00:00,0.0
2024-04-04 17:00:00+00:00,0.0
2024-04-04 18:00:00+00:00,0.0
2024-04-04 19:00:00+00:00,0.0
2024-04-05 13:00:00+00:00,0.0
2024-04-05 14:00:00+00:00,0.0
2024-04-05 15:00:00+00:00,0.0
2024-04-05 16:00:00+00:00,0.0
2024-04-05 17:00:00+00:00,0.0
2024-04-05 18:00:00+00:00,0.0
2024-04-05 19:00:00+00:00,0.0
2024-04-08 13:00:00+00:00,0.0
2024-04-08 14:00:00+00:00,0.0
2024-04-08 15:00:00+00:00,0.0
2024-04-08 16:00:00+00:00,0.0
2024-04-08 17:00:00+00:00,0.0
2024-04-08 18:00:00+00:00,0.0
2024-04-08 19:00:00+00:00,0.0
2024-04-09 13:00:00+00:00,0.0
2024-04-09 14:00:00+00:00,0.0
2024-04-09 15:00:00+00:00,0.0
2024-04-09 16:00:00+00:00,0.0
2024-04-09 17:00:00+00:00,0.0
2024-04-09 18:00:00+00:00,0.0
2024-04-09 19:00:00+00:00,0.0
2024-04-10 13:00:00+00:00,0.0
2024-04-10 14:00:00+00:00,0.0
2024-04-10 15:00:00+00:00,0.0
2024-04-10 16:00:00+00:00,0.0
2024-04-10 17:00:00+00:00,0.0
2024-04-10 18:00:00+00:00,0.0
2024-04-10 19:00:00+00:00,0.0
2024-04-11 13:00:00+00:00,0.0
2024-04-11 14:00:00+00:00,0.0
2024-04-11 15:00:00+00:00,0.0
2024-04-11 16:00:00+00:00,0.0
2024-04-11 17:00:00+00:00,0.0
2024-04-11 18:00:00+00:00,0.0
2024-04-11 19:00:00+00:00,0.0
2024-04-12 13:00:00+00:00,0.0
2024-04-12 14:00:00+00:00,0.0
2024-04-12 15:00:00+00:00,0.0
2024-04-12 16:00:00+00:00,0.0
2024-04-12 17:00:00+00:00,0.0
2024-04-12 18:00:00+00:00,0.0
2024-04-12 19:00:00+00:00,0.0
2024-04-15 13:00:00+00:00,0.0
2024-04-15 14:00:00+00:00,0.0
2024-04-15 15:00:00+00:00,0.0
2024-04-15 16:00:00+00:00,0.0
2024-04-15 17:00:00+00:00,0.0
2024-04-15 18:00:00+00:00,0.0
2024-04-15 19:00:00+00:00,0.0
2024-04-16 13:00:00+00:00,0.0
2024-04-16 14:00:00+00:00,0.0
2024-04-16 15:00:00+00:00,0.0
2024-04-16 16:00:00+00:00,0.0
2024-04-16 17:00:00+00:00,0.0
2024-04-16 18:00:00+00:00,0.0
2024-04-16 19:00:00+00:00,0.0
2024-04-17 13:00:00+00:00,0.0
2024-04-17 14:00:00+00:00,0.0
2024-04-17 15:00:00+00:00,0.0
2024-04-17 16:00:00+00:00,0.0
2024-04-17 17:00:00+00:00,0.0
2024-04-17 18:00:00+00:00,0.0
2024-04-17 19:00:00+00:00,0.0
2024-04-18 13:00:00+00:00,0.0
2024-04-18 14:00:00+00:00,0.0
2024-04-18 15:00:00+00:00,0.0
2024-04-18 16:00:00+00:00,0.0
2024-04-18 17:00:00+00:00,0.0
2024-04-18 18:00:00+00:00,0.0
2024-04-18 19:00:00+00:00,0.0
2024-04-19 13:00:00+00:00,0.0
2024-04-19 14:00:00+00:00,0.0
2024-04-19 15:00:00+00:00,0.0
2024-04-19 16:00:00+00:00,0.0
2024-04-19 17:00:00+00:00,0.0
2024-04-19 18:00:00+00:00,0.0
2024-04-19 19:00:00+00:00,0.0
2024-04-22 13:00:00+00:00,0.0
2024-04-22 14:00:00+00:00,0.0
2024-04-22 15:00:00+00:00,0.0
2024-04-22 16:00:00+00:00,0.0
2024-04-22 17:00:00+00:00,0.0
2024-04-22 18:00:00+00:00,0.0
2024-04-22 19:00:00+00:00,0.0
2024-04-23 13:00:00+00:00,0.0
2024-04-23 14:00:00+00:00,0.0
2024-04-23 15:00:00+00:00,0.0
2024-04-23 16:00:00+00:00,0.0
2024-04-23 17:00:00+00:00,0.0
2024-04-23 18:00:00+00:00,0.0
2024-04-23 19:00:00+00:00,0.0
2024-04-24 13:00:00+00:00,0.0
2024-04-24 14:00:00+00:00,0.0
2024-04-24 15:00:00+00:00,0.0
2024-04-24 16:00:00+00:00,0.0
2024-04-24 17:00:00+00:00,0.0
2024-04-24 18:00:00+00:00,0.0
2024-04-24 19:00:00+00:00,0.0
2024-04-25 13:00:00+00:00,0.0
2024-04-25 14:00:00+00:00,0.0
2024-04-25 15:00:00+00:00,0.0
2024-04-25 16:00:00+00:00,0.0
2024-04-25 17:00:00+00:00,0.0
2024-04-25 18:00:00+00:00,0.0
2024-04-25 19:00:00+00:00,0.0
2024-04-26 13:00:00+00:00,0.0
2024-04-26 14:00:00+00:00,0.0
2024-04-26 15:00:00+00:00,0.0
2024-04-26 16:00:00+00:00,0.0
2024-04-26 17:00:00+00:00,0.0
2024-04-26 18:00:00+00:00,0.0
2024-04-26 19:00:00+00:00,0.0
2024-04-29 13:00:00+00:00,0.0
2024-04-29 14:00:00+00:00,0.0
2024-04-29 15:00:00+00:00,0.0
2024-04-29 16:00:00+00:00,0.0
2024-04-29 17:00:00+00:00,0.0
2024-04-29 18:00:00+00:00,0.0
2024-04-29 19:00:00+00:00,0.0
2024-04-30 13:00:00+00:00,0.0
2024-04-30 14:00:00+00:00,0.0
2024-04-30 15:00:00+00:00,0.0
2024-04-30 16:00:00+00:00,0.0
2024-04-30 17:00:00+00:00,0.0
2024-04-30 18:00:00+00:00,0.0
2024-04-30 19:00:00+00:00,0.0
2024-05-01 13:00:00+00:00,0.0
2024-05-01 14:00:00+00:00,0.0
2024-05-01 15:00:00+00:00,0.0
2024-05-01 16:00:00+00:00,0.0
2024-05-01 17:00:00+00:00,0.0
2024-05-01 18:00:00+00:00,0.0
2024-05-01 19:00:00+00:00,0.0
2024-05-02 13:00:00+00:00,0.0
2024-05-02 14:00:00+00:00,0.0
2024-05-02 15:00:00+00:00,0.0
2024-05-02 16:00:00+00:00,0.0
2024-05-02 17:00:00+00:00,0.0
2024-05-02 18:00:00+00:00,0.0
2024-05-02 19:00:00+00:00,0.0
2024-05-03 13:00:00+00:00,0.0
2024-05-03 14:00:00+00:00,0.0
2024-05-03 15:00:00+00:00,0.0
2024-05-03 16:00:00+00:00,0.0
2024-05-03 17:00:00+00:00,0.0
2024-05-03 18:00:00+00:00,0.0
2024-05-03 19:00:00+00:00,0.0
2024-05-06 13:00:00+00:00,0.0
2024-05-06 14:00:00+00:00,0.0
2024-05-06 15:00:00+00:00,0.0
2024-05-06 16:00:00+00:00,0.0
2024-05-06 17:00:00+00:00,0.0
2024-05-06 18:00:00+00:00,0.0
2024-05-06 19:00:00+00:00,0.0
2024-05-07 13:00:00+00:00,0.0
2024-05-07 14:00:00+00:00,0.0
2024-05-07 15:00:00+00:00,0.0
2024-05-07 16:00:00+00:00,0.0
2024-05-07 17:00:00+00:00,0.0
2024-05-07 18:00:00+00:00,0.0
2024-05-07 19:00:00+00:00,0.0
2024-05-08 13:00:00+00:00,0.0
2024-05-08 14:00:00+00:00,0.0
2024-05-08 15:00:00+00:00,0.0
2024-05-08 16:00:00+00:00,0.0
2024-05-08 17:00:00+00:00,0.0
2024-05-08 18:00:00+00:00,0.0
2024-05-08 19:00:00+00:00,0.0
2024-05-09 13:00:00+00:00,0.0
2024-05-09 14:00:00+00:00,0.0
2024-05-09 15:00:00+00:00,0.0
2024-05-09 16:00:00+00:00,0.0
2024-05-09 17:00:00+00:00,0.0
2024-05-09 18:00:00+00:00,0.0
2024-05-09 19:00:00+00:00,0.0
2024-05-10 13:00:00+00:00,0.0
2024-05-10 14:00:00+00:00,0.0
2024-05-10 15:00:00+00:00,0.0
2024-05-10 16:00:00+00:00,0.0
2024-05-10 17:00:00+00:00,0.0
2024-05-10 18:00:00+00:00,0.0
2024-05-10 19:00:00+00:00,0.0
2024-05-13 13:00:00+00:00,0.0
2024-05-13 14:00:00+00:00,0.0
2024-05-13 15:00:00+00:00,0.0
2024-05-13 16:00:00+00:00,0.0
2024-05-13 17:00:00+00:00,0.0
2024-05-13 18:00:00+00:00,0.0
2024-05-13 19:00:00+00:00,0.0
2024-05-14 13:00:00+00:00,0.0
2024-05-14 14:00:00+00:00,0.0
2024-05-14 15:00:00+00:00,0.0
2024-05-14 16:00:00+00:00,0.0
2024-05-14 17:00:00+00:00,0.0
2024-05-14 18:00:00+00:00,0.0
2024-05-14 19:00:00+00:00,0.0
2024-05-15 13:00:00+00:00,0.0
2024-05-15 14:00:00+00:00,0.0
2024-05-15 15:00:00+00:00,0.0
2024-05-15 16:00:00+00:00,0.0
2024-05-15 17:00:00+00:00,0.0
2024-05-15 18:00:00+00:00,0.0
2024-05-15 19:00:00+00:00,0.0
2024-05-16 13:00:00+00:00,0.0
2024-05-16 14:00:00+00:00,0.0
2024-05-16 15:00:00+00:00,0.0
2024-05-16 16:00:00+00:00,0.0
2024-05-16 17:00:00+00:00,0.0
2024-05-16 18:00:00+00:00,0.0
2024-05-16 19:00:00+00:00,0.0
2024-05-17 13:00:00+00:00,0.0
2024-05-17 14:00:00+00:00,0.0
2024-05-17 15:00:00+00:00,0.0
2024-05-17 16:00:00+00:00,0.0
2024-05-17 17:00:00+00:00,0.0
2024-05-17 18:00:00+00:00,0.0
2024-05-17 19:00:00+00:00,0.0
2024-05-20 13:00:00+00:00,0.0
2024-05-20 14:00:00+00:00,0.0
2024-05-20 15:00:00+00:00,0.0
2024-05-20 16:00:00+00:00,0.0
2024-05-20 17:00:00+00:00,0.0
2024-05-20 18:00:00+00:00,0.0
2024-05-20 19:00:00+00:00,0.0
2024-05-21 13:00:00+00:00,0.0
2024-05-21 14:00:00+00:00,0.0
2024-05-21 15:00:00+00:00,0.0
2024-05-21 16:00:00+00:00,0.0
2024-05-21 17:00:00+00:00,0.0
2024-05-21 18:00:00+00:00,0.0
2024-05-21 19:00:00+00:00,0.0
2024-05-22 13:00:00+00:00,0.0
2024-05-22 14:00:00+00:00,0.0
2024-05-22 15:00:00+00:00,0.0
2024-05-22 16:00:00+00:00,0.0
2024-05-22 17:00:00+00:00,0.0
2024-05-22 18:00:00+00:00,0.0
2024-05-22 19:00:00+00:00,0.0
2024-05-23 13:00:00+00:00,0.0
2024-05-23 14:00:00+00:00,0.0
2024-05-23 15:00:00+00:00,0.0
2024-05-23 16:00:00+00:00,0.0
2024-05-23 17:00:00+00:00,0.0
2024-05-23 18:00:00+00:00,0.0
2024-05-23 19:00:00+00:00,0.0
2024-05-24 13:00:00+00:00,0.0
2024-05-24 14:00:00+00:00,0.0
2024-05-24 15:00:00+00:00,0.0
2024-05-24 16:00:00+00:00,0.0
2024-05-24 17:00:00+00:00,0.0
2024-05-24 18:00:00+00:00,0.0
2024-05-24 19:00:00+00:00,0.0
2024-05-28 13:00:00+00:00,0.0
2024-05-28 14:00:00+00:00,0.0
2024-05-28 15:00:00+00:00,0.0
2024-05-28 16:00:00+00:00,0.0
2024-05-28 17:00:00+00:00,0.0
2024-05-28 18:00:00+00:00,0.0
2024-05-28 19:00:00+00:00,0.0
2024-05-29 13:00:00+00:00,0.0
2024-05-29 14:00:00+00:00,0.0
2024-05-29 15:00:00+00:00,0.0
2024-05-29 16:00:00+00:00,0.0
2024-05-29 17:00:00+00:00,0.0
2024-05-29 18:00:00+00:00,0.0
2024-05-29 19:00:00+00:00,0.0
2024-05-30 13:00:00+00:00,0.0
2024-05-30 14:00:00+00:00,0.0
2024-05-30 15:00:00+00:00,0.0
2024-05-30 16:00:00+00:00,0.0
2024-05-30 17:00:00+00:00,0.0
2024-05-30 18:00:00+00:00,0.0
2024-05-30 19:00:00+00:00,0.0
2024-05-31 13:00:00+00:00,0.0
2024-05-31 14:00:00+00:00,0.0
2024-05-31 15:00:00+00:00,0.0
2024-05-31 16:00:00+00:00,0.0
2024-05-31 17:00:00+00:00,0.0
2024-05-31 18:00:00+00:00,0.0
2024-05-31 19:00:00+00:00,0.0
2024-06-03 13:00:00+00:00,0.0
2024-06-03 14:00:00+00:00,0.0
2024-06-03 15:00:00+00:00,0.0
2024-06-03 16:00:00+00:00,0.0
2024-06-03 17:00:00+00:00,0.0
2024-06-03 18:00:00+00:00,0.0
2024-06-03 19:00:00+00:00,0.0
2024-06-04 13:00:00+00:00,0.0
2024-06-04 14:00:00+00:00,0.0
2024-06-04 15:00:00+00:00,0.0
2024-06-04 16:00:00+00:00,0.0
2024-06-04 17:00:00+00:00,0.0
2024-06-04 18:00:00+00:00,0.0
2024-06-04 19:00:00+00:00,0.0
2024-06-05 13:00:00+00:00,0.0
2024-06-05 14:00:00+00:00,0.0
2024-06-05 17:00:00+00:00,0.0
2024-06-05 19:00:00+00:00,0.0
2024-06-06 13:00:00+00:00,0.0
2024-06-06 14:00:00+00:00,0.0
2024-06-07 13:00:00+00:00,0.0
2024-06-07 14:00:00+00:00,0.0
2024-06-07 15:00:00+00:00,0.0
2024-06-07 16:00:00+00:00,0.0
2024-06-07 17:00:00+00:00,0.0
2024-06-07 18:00:00+00:00,0.0
2024-06-07 19:00:00+00:00,0.0
2024-06-10 13:00:00+00:00,0.0
2024-06-10 14:00:00+00:00,0.0
2024-06-10 16:00:00+00:00,0.0
2024-06-10 17:00:00+00:00,0.0
2024-06-10 18:00:00+00:00,0.0
2024-06-10 19:00:00+00:00,0.0
2024-06-11 13:00:00+00:00,0.0
2024-06-11 14:00:00+00:00,0.0
2024-06-11 15:00:00+00:00,0.0
2024-06-11 17:00:00+00:00,0.0
2024-06-11 18:00:00+00:00,0.0
2024-06-11 19:00:00+00:00,0.0
2024-06-12 13:00:00+00:00,0.0
2024-06-12 15:00:00+00:00,0.0
2024-06-12 18:00:00+00:00,0.0
2024-06-12 19:00:00+00:00,0.0
2024-06-13 13:00:00+00:00,0.0
2024-06-13 14:00:00+00:00,0.0
2024-06-13 15:00:00+00:00,0.0
2024-06-13 17:00:00+00:00,0.0
2024-06-13 18:00:00+00:00,0.0
2024-06-13 19:00:00+00:00,0.0
2024-06-14 13:00:00+00:00,0.0
2024-06-14 14:00:00+00:00,0.0
2024-06-14 15:00:00+00:00,0.0
2024-06-14 17:00:00+00:00,0.0
2024-06-14 19:00:00+00:00,0.0
2024-06-17 13:00:00+00:00,0.0
2024-06-17 14:00:00+00:00,0.0
2024-06-17 16:00:00+00:00,0.0
2024-06-17 17:00:00+00:00,0.0
2024-06-17 18:00:00+00:00,0.0
2024-06-17 19:00:00+00:00,0.0
2024-06-18 15:00:00+00:00,0.0
2024-06-18 16:00:00+00:00,0.0
2024-06-18 17:00:00+00:00,0.0
2024-06-18 18:00:00+00:00,0.0
2024-06-18 19:00:00+00:00,0.0
2024-06-20 13:00:00+00:00,0.0
2024-06-20 15:00:00+00:00,0.0
2024-06-20 16:00:00+00:00,0.0
2024-06-20 17:00:00+00:00,0.0
2024-06-20 18:00:00+00:00,0.0
2024-06-21 13:00:00+00:00,0.0
2024-06-21 17:00:00+00:00,0.0
2024-06-21 19:00:00+00:00,0.0
2024-06-24 13:00:00+00:00,0.0
2024-06-24 14:00:00+00:00,0.0
2024-06-24 15:00:00+00:00,0.0
2024-06-24 19:00:00+00:00,0.0
2024-06-25 13:00:00+00:00,0.0
2024-06-25 14:00:00+00:00,0.0
2024-06-25 15:00:00+00:00,0.0
2024-06-25 16:00:00+00:00,0.0
2024-06-25 17:00:00+00:00,0.0
2024-06-25 19:00:00+00:00,0.0
2024-06-26 13:00:00+00:00,0.0
2024-06-26 14:00:00+00:00,0.0
2024-06-26 15:00:00+00:00,0.0
2024-06-26 16:00:00+00:00,0.0
2024-06-26 18:00:00+00:00,0.0
2024-06-26 19:00:00+00:00,0.0
2024-06-27 14:00:00+00:00,0.0
2024-06-27 18:00:00+00:00,0.0
2024-06-27 19:00:00+00:00,0.0
2024-06-28 13:00:00+00:00,0.0
2024-06-28 15:00:00+00:00,0.0
2024-06-28 17:00:00+00:00,0.0
2024-06-28 18:00:00+00:00,0.0
2024-06-28 19:00:00+00:00,0.0
2024-07-01 13:00:00+00:00,0.0
2024-07-01 14:00:00+00:00,-70.55459647719678
2024-07-01 15:00:00+00:00,-43.24627300249851
2024-07-01 17:00:00+00:00,-30.381339967574917
2024-07-01 18:00:00+00:00,-61.484998526967516
2024-07-02 13:00:00+00:00,-33.48408734715093
2024-07-02 16:00:00+00:00,-32.751519971945655
2024-07-02 18:00:00+00:00,-14.465293177036695
2024-07-02 19:00:00+00:00,4.860386407958643
2024-07-03 13:00:00+00:00,-76.44157398214311
2024-07-03 14:00:00+00:00,-95.95741203656955
2024-07-03 15:00:00+00:00,-101.97231996086867
2024-07-05 13:00:00+00:00,-169.56508751902044
2024-07-05 15:00:00+00:00,-178.87263680630755
2024-07-05 16:00:00+00:00,-168.07272645498213
2024-07-05 18:00:00+00:00,-147.7887730270076
2024-07-05 19:00:00+00:00,-132.159178207202
2024-07-08 13:00:00+00:00,-39.387956671125565
2024-07-08 14:00:00+00:00,-28.49954036479972
2024-07-08 15:00:00+00:00,-26.765057071533196
2024-07-08 16:00:00+00:00,-9.488792080665103
2024-07-08 17:00:00+00:00,-7.6665906054300414
2024-07-08 18:00:00+00:00,-9.181629887084423
2024-07-08 19:00:00+00:00,-2.8596089399273215
2024-07-09 13:00:00+00:00,-52.86670826525615
2024-07-09 14:00:00+00:00,-65.26944028873359
2024-07-09 16:00:00+00:00,-42.680610326794024
2024-07-09 17:00:00+00:00,-53.34937717764628
2024-07-09 18:00:00+00:00,-75.57768937427284
2024-07-10 13:00:00+00:00,-140.10772639393636
2024-07-10 14:00:00+00:00,-142.87481008568815
2024-07-10 15:00:00+00:00,-131.76726244452797
2024-07-10 16:00:00+00:00,-121.33029224534694
2024-07-10 17:00:00+00:00,-138.72554739415247
2024-07-10 18:00:00+00:00,-115.23643460959411
2024-07-10 19:00:00+00:00,-101.51633626658625
2024-07-11 13:00:00+00:00,30.49109463129244
2024-07-11 14:00:00+00:00,30.49109463129244
2024-07-11 15:00:00+00:00,30.49109463129244
2024-07-11 16:00:00+00:00,30.49109463129244
2024-07-11 17:00:00+00:00,30.49109463129244
2024-07-11 18:00:00+00:00,30.49109463129244
2024-07-12 13:00:00+00:00,30.49109463129244
2024-07-12 14:00:00+00:00,30.49109463129244
2024-07-12 16:00:00+00:00,30.49109463129244
2024-07-15 14:00:00+00:00,30.49109463129244
2024-07-15 15:00:00+00:00,30.49109463129244
2024-07-15 16:00:00+00:00,30.49109463129244
2024-07-15 17:00:00+00:00,30.49109463129244
2024-07-15 18:00:00+00:00,30.49109463129244
2024-07-15 19:00:00+00:00,30.49109463129244
2024-07-16 13:00:00+00:00,30.49109463129244
2024-07-16 14:00:00+00:00,30.49109463129244
2024-07-16 17:00:00+00:00,30.49109463129244
2024-07-16 18:00:00+00:00,30.49109463129244
2024-07-16 19:00:00+00:00,30.49109463129244
2024-07-17 13:00:00+00:00,30.49109463129244
2024-07-17 14:00:00+00:00,30.49109463129244
2024-07-17 16:00:00+00:00,30.49109463129244
2024-07-17 17:00:00+00:00,30.49109463129244
2024-07-17 18:00:00+00:00,30.49109463129244
2024-07-17 19:00:00+00:00,30.49109463129244
2024-07-18 13:00:00+00:00,30.49109463129244
2024-07-18 14:00:00+00:00,30.49109463129244
2024-07-18 18:00:00+00:00,30.49109463129244
2024-07-18 19:00:00+00:00,30.49109463129244
2024-07-19 13:00:00+00:00,30.49109463129244
2024-07-19 14:00:00+00:00,30.49109463129244
2024-07-19 15:00:00+00:00,30.49109463129244
2024-07-19 17:00:00+00:00,30.49109463129244
2024-07-19 19:00:00+00:00,30.49109463129244
2024-07-22 13:00:00+00:00,30.49109463129244
2024-07-22 14:00:00+00:00,30.49109463129244
2024-07-22 15:00:00+00:00,30.49109463129244
2024-07-22 18:00:00+00:00,30.49109463129244
2024-07-22 19:00:00+00:00,30.49109463129244
2024-07-23 13:00:00+00:00,30.49109463129244
2024-07-23 15:00:00+00:00,30.49109463129244
2024-07-23 18:00:00+00:00,30.49109463129244
2024-07-23 19:00:00+00:00,30.49109463129244
2024-07-24 13:00:00+00:00,30.49109463129244
2024-07-24 14:00:00+00:00,30.49109463129244
2024-07-24 15:00:00+00:00,30.49109463129244
2024-07-24 16:00:00+00:00,30.49109463129244
2024-07-24 17:00:00+00:00,30.49109463129244
2024-07-24 18:00:00+00:00,30.49109463129244
2024-07-24 19:00:00+00:00,30.49109463129244
2024-07-25 13:00:00+00:00,30.49109463129244
2024-07-25 14:00:00+00:00,30.49109463129244
2024-07-25 15:00:00+00:00,30.49109463129244
2024-07-25 16:00:00+00:00,30.49109463129244
2024-07-25 17:00:00+00:00,30.49109463129244
2024-07-25 18:00:00+00:00,30.49109463129244
2024-07-25 19:00:00+00:00,30.49109463129244
2024-07-26 13:00:00+00:00,30.49109463129244
2024-07-26 14:00:00+00:00,30.49109463129244
2024-07-26 15:00:00+00:00,30.49109463129244
2024-07-26 16:00:00+00:00,30.49109463129244
2024-07-26 17:00:00+00:00,30.49109463129244
2024-07-26 18:00:00+00:00,30.49109463129244
2024-07-26 19:00:00+00:00,30.49109463129244
2024-07-29 13:00:00+00:00,30.49109463129244
2024-07-29 14:00:00+00:00,30.49109463129244
2024-07-29 15:00:00+00:00,30.49109463129244
2024-07-29 16:00:00+00:00,30.49109463129244
2024-07-29 18:00:00+00:00,30.49109463129244
2024-07-30 13:00:00+00:00,30.49109463129244
2024-07-30 14:00:00+00:00,30.49109463129244
2024-07-30 15:00:00+00:00,30.49109463129244
2024-07-30 16:00:00+00:00,30.49109463129244
2024-07-30 17:00:00+00:00,30.49109463129244
2024-07-30 18:00:00+00:00,30.49109463129244
2024-07-30 19:00:00+00:00,30.49109463129244
2024-07-31 13:00:00+00:00,30.49109463129244
2024-07-31 14:00:00+00:00,30.49109463129244
2024-07-31 16:00:00+00:00,30.49109463129244
2024-07-31 17:00:00+00:00,30.49109463129244
2024-07-31 18:00:00+00:00,30.49109463129244
2024-07-31 19:00:00+00:00,30.49109463129244
2024-08-01 13:00:00+00:00,30.49109463129244
2024-08-01 14:00:00+00:00,30.49109463129244
2024-08-01 15:00:00+00:00,30.49109463129244
2024-08-01 16:00:00+00:00,30.49109463129244
2024-08-01 17:00:00+00:00,30.49109463129244
2024-08-01 18:00:00+00:00,30.49109463129244
2024-08-01 19:00:00+00:00,30.49109463129244
2024-08-02 13:00:00+00:00,30.49109463129244
2024-08-02 14:00:00+00:00,30.49109463129244
2024-08-02 15:00:00+00:00,30.49109463129244
2024-08-02 16:00:00+00:00,30.49109463129244
2024-08-02 17:00:00+00:00,30.49109463129244
2024-08-02 19:00:00+00:00,30.49109463129244
2024-08-05 13:00:00+00:00,-125.82745635786051
2024-08-05 14:00:00+00:00,-85.94204501197714
2024-08-05 15:00:00+00:00,-74.74424682225327
2024-08-05 16:00:00+00:00,-108.91738299717227
2024-08-05 17:00:00+00:00,-102.07433366894121
2024-08-05 18:00:00+00:00,-133.00921035829816
2024-08-05 19:00:00+00:00,-151.22069695925137
2024-08-06 13:00:00+00:00,-83.48605089623817
2024-08-06 14:00:00+00:00,-146.76504054381633
2024-08-06 15:00:00+00:00,-128.72382461750593
2024-08-06 16:00:00+00:00,-132.19623066299295
2024-08-06 17:00:00+00:00,-138.8757201691582
2024-08-06 18:00:00+00:00,-152.84356308719762
2024-08-06 19:00:00+00:00,-203.95716393411567
2024-08-07 13:00:00+00:00,-64.62131434267187
2024-08-07 14:00:00+00:00,-93.84170169650585
2024-08-07 15:00:00+00:00,-136.5939451995264
2024-08-07 16:00:00+00:00,-145.57384430490393
2024-08-07 17:00:00+00:00,-178.18799023715883
2024-08-07 19:00:00+00:00,-188.51967053294524
2024-08-08 13:00:00+00:00,-147.36629755234623
2024-08-08 14:00:00+00:00,-145.14648342830998
2024-08-08 15:00:00+00:00,-146.09039358051237
2024-08-08 16:00:00+00:00,-145.78181683797527
2024-08-08 17:00:00+00:00,-171.04679220424583
2024-08-08 18:00:00+00:00,-164.3262441953485
2024-08-08 19:00:00+00:00,-199.4216034660302
2024-08-09 13:00:00+00:00,-171.4425835465523
2024-08-09 14:00:00+00:00,-159.7073258709757
2024-08-09 15:00:00+00:00,-177.14197466620075
2024-08-09 16:00:00+00:00,-158.1233052929459
2024-08-09 17:00:00+00:00,-182.16179770073757
2024-08-09 18:00:00+00:00,-175.36671448251485
2024-08-12 14:00:00+00:00,-272.0712752589425
2024-08-12 16:00:00+00:00,-289.5520880573782
2024-08-12 17:00:00+00:00,-314.42321378513384
2024-08-12 18:00:00+00:00,-304.06516114473277
2024-08-12 19:00:00+00:00,-308.6007216128181
2024-08-13 13:00:00+00:00,-329.64075998404826
2024-08-13 16:00:00+00:00,-261.1053076491623
2024-08-13 18:00:00+00:00,-261.58429262499646
2024-08-13 19:00:00+00:00,-264.43644649139827
2024-08-14 13:00:00+00:00,-253.0095021767171
2024-08-14 14:00:00+00:00,-251.70654230511914
2024-08-14 15:00:00+00:00,-250.99429851010265
2024-08-14 18:00:00+00:00,-214.85274588256914
2024-08-14 19:00:00+00:00,-232.9807036466102
2024-08-15 13:00:00+00:00,-108.46795878840317
2024-08-15 14:00:00+00:00,-97.7385721106227
2024-08-15 16:00:00+00:00,-60.9337239393875
2024-08-15 17:00:00+00:00,-79.96632932746283
2024-08-15 18:00:00+00:00,-77.26496416469968
2024-08-16 13:00:00+00:00,-161.3377580602997
2024-08-16 14:00:00+00:00,-149.3959748876148
2024-08-16 15:00:00+00:00,-157.73613197552027
2024-08-16 17:00:00+00:00,-150.77058132795457
2024-08-16 18:00:00+00:00,-154.9636854070686
2024-08-16 19:00:00+00:00,-125.85734513396143
2024-08-19 13:00:00+00:00,-138.99381143239358
2024-08-19 14:00:00+00:00,-138.99381143239358
2024-08-19 19:00:00+00:00,-138.99381143239358
2024-08-20 13:00:00+00:00,-138.99381143239358
2024-08-20 15:00:00+00:00,-138.99381143239358
2024-08-20 17:00:00+00:00,-138.99381143239358
2024-08-20 18:00:00+00:00,-138.99381143239358
2024-08-21 13:00:00+00:00,-138.99381143239358
2024-08-21 14:00:00+00:00,-138.99381143239358
2024-08-21 15:00:00+00:00,-138.99381143239358
2024-08-21 16:00:00+00:00,-138.99381143239358
2024-08-21 17:00:00+00:00,-138.99381143239358
2024-08-21 19:00:00+00:00,-138.99381143239358
2024-08-22 13:00:00+00:00,-138.99381143239358
2024-08-22 14:00:00+00:00,-138.99381143239358
2024-08-22 15:00:00+00:00,-138.99381143239358
2024-08-22 17:00:00+00:00,-138.99381143239358
2024-08-22 19:00:00+00:00,-138.99381143239358
2024-08-23 13:00:00+00:00,-138.99381143239358
2024-08-23 14:00:00+00:00,-138.99381143239358
2024-08-23 15:00:00+00:00,-138.99381143239358
2024-08-23 16:00:00+00:00,-138.99381143239358
2024-08-23 17:00:00+00:00,-138.99381143239358
2024-08-23 18:00:00+00:00,-138.99381143239358
2024-08-26 13:00:00+00:00,-138.99381143239358
2024-08-26 14:00:00+00:00,-138.99381143239358
2024-08-26 15:00:00+00:00,-138.99381143239358
2024-08-26 18:00:00+00:00,-138.99381143239358
2024-08-26 19:00:00+00:00,-138.99381143239358
2024-08-27 13:00:00+00:00,-138.99381143239358
2024-08-27 14:00:00+00:00,-138.99381143239358
2024-08-27 16:00:00+00:00,-138.99381143239358
2024-08-27 19:00:00+00:00,-138.99381143239358
2024-08-28 16:00:00+00:00,-138.99381143239358
2024-08-28 17:00:00+00:00,-138.99381143239358
2024-08-28 19:00:00+00:00,-138.99381143239358
2024-08-29 13:00:00+00:00,-138.99381143239358
2024-08-29 14:00:00+00:00,-138.99381143239358
2024-08-29 15:00:00+00:00,-138.99381143239358
2024-08-29 16:00:00+00:00,-138.99381143239358
2024-08-29 17:00:00+00:00,-138.99381143239358
2024-08-29 19:00:00+00:00,-138.99381143239358
2024-08-30 13:00:00+00:00,-138.99381143239358
2024-08-30 14:00:00+00:00,-138.99381143239358
2024-08-30 16:00:00+00:00,-138.99381143239358
2024-08-30 19:00:00+00:00,-138.99381143239358
2024-09-03 13:00:00+00:00,-138.99381143239358
2024-09-03 14:00:00+00:00,-138.99381143239358
2024-09-03 16:00:00+00:00,-138.99381143239358
2024-09-03 17:00:00+00:00,-138.99381143239358
2024-09-03 19:00:00+00:00,-138.99381143239358
2024-09-04 13:00:00+00:00,-138.99381143239358
2024-09-04 14:00:00+00:00,-138.99381143239358
2024-09-04 19:00:00+00:00,-138.99381143239358
2024-09-05 13:00:00+00:00,-138.99381143239358
2024-09-05 14:00:00+00:00,-138.99381143239358
2024-09-05 15:00:00+00:00,-138.99381143239358
2024-09-05 16:00:00+00:00,-138.99381143239358
2024-09-05 17:00:00+00:00,-138.99381143239358
2024-09-05 19:00:00+00:00,-138.99381143239358
2024-09-06 13:00:00+00:00,-138.99381143239358
2024-09-06 14:00:00+00:00,-138.99381143239358
2024-09-06 16:00:00+00:00,-138.99381143239358
2024-09-06 18:00:00+00:00,-138.99381143239358
2024-09-06 19:00:00+00:00,-138.99381143239358
2024-09-09 13:00:00+00:00,-138.99381143239358
2024-09-09 14:00:00+00:00,-138.99381143239358
2024-09-09 15:00:00+00:00,-138.99381143239358
2024-09-09 17:00:00+00:00,-138.99381143239358
2024-09-09 18:00:00+00:00,-138.99381143239358
2024-09-09 19:00:00+00:00,-138.99381143239358
2024-09-10 13:00:00+00:00,-138.99381143239358
2024-09-10 14:00:00+00:00,-138.99381143239358
2024-09-10 15:00:00+00:00,-138.99381143239358
2024-09-10 17:00:00+00:00,-138.99381143239358
2024-09-10 18:00:00+00:00,-138.99381143239358
2024-09-10 19:00:00+00:00,-138.99381143239358
2024-09-11 13:00:00+00:00,-138.99381143239358
2024-09-11 14:00:00+00:00,-138.99381143239358
2024-09-11 15:00:00+00:00,-138.99381143239358
2024-09-11 16:00:00+00:00,-138.99381143239358
2024-09-11 19:00:00+00:00,-138.99381143239358
2024-09-12 13:00:00+00:00,-138.99381143239358
2024-09-12 14:00:00+00:00,-138.99381143239358
2024-09-12 15:00:00+00:00,-138.99381143239358
2024-09-12 16:00:00+00:00,-138.99381143239358
2024-09-12 17:00:00+00:00,-138.99381143239358
2024-09-12 18:00:00+00:00,-138.99381143239358
2024-09-12 19:00:00+00:00,-138.99381143239358
2024-09-13 13:00:00+00:00,-138.99381143239358
2024-09-13 14:00:00+00:00,-138.99381143239358
2024-09-13 15:00:00+00:00,-138.99381143239358
2024-09-16 13:00:00+00:00,-138.99381143239358
2024-09-16 14:00:00+00:00,-138.99381143239358
2024-09-16 15:00:00+00:00,-138.99381143239358
2024-09-16 16:00:00+00:00,-138.99381143239358
2024-09-16 17:00:00+00:00,-138.99381143239358
2024-09-16 18:00:00+00:00,-138.99381143239358
2024-09-16 19:00:00+00:00,-138.99381143239358
2024-09-17 13:00:00+00:00,-138.99381143239358
2024-09-17 14:00:00+00:00,-138.99381143239358
2024-09-17 16:00:00+00:00,-138.99381143239358
2024-09-17 18:00:00+00:00,-138.99381143239358
2024-09-17 19:00:00+00:00,-138.99381143239358
2024-09-18 13:00:00+00:00,-138.99381143239358
2024-09-18 14:00:00+00:00,-138.99381143239358
2024-09-18 15:00:00+00:00,-138.99381143239358
2024-09-18 17:00:00+00:00,-138.99381143239358
2024-09-18 18:00:00+00:00,-138.99381143239358
2024-09-18 19:00:00+00:00,-138.99381143239358
2024-09-19 13:00:00+00:00,-138.99381143239358
2024-09-19 14:00:00+00:00,-138.99381143239358
2024-09-19 15:00:00+00:00,-168.17654406528357
2024-09-19 17:00:00+00:00,-176.9175753499291
2024-09-19 18:00:00+00:00,-154.7633011111567
2024-09-20 13:00:00+00:00,88.76539123658529
2024-09-20 18:00:00+00:00,71.8520023066474
2024-09-20 19:00:00+00:00,74.28814849277317
2024-09-23 13:00:00+00:00,105.62462066577976
2024-09-23 14:00:00+00:00,76.28896257979689
2024-09-23 15:00:00+00:00,74.1457127187916
2024-09-23 16:00:00+00:00,53.596132399782164
2024-09-23 18:00:00+00:00,44.62300663405686
2024-09-23 19:00:00+00:00,29.8020819202156
2024-09-24 13:00:00+00:00,-33.73780684457451
2024-09-24 14:00:00+00:00,22.03966356413406
2024-09-24 15:00:00+00:00,33.350871314780946
2024-09-24 18:00:00+00:00,41.788785661045004
2024-09-24 19:00:00+00:00,30.670180571784318
2024-09-25 13:00:00+00:00,64.81156700965799
2024-09-25 14:00:00+00:00,47.83598873954304
2024-09-25 16:00:00+00:00,58.26118704435218
2024-09-25 18:00:00+00:00,41.110955327326444
2024-09-26 13:00:00+00:00,-197.95220809746877
2024-09-26 14:00:00+00:00,-232.70534768811348
2024-09-26 15:00:00+00:00,-277.8463008683848
2024-09-26 16:00:00+00:00,-286.3134955167848
2024-09-26 17:00:00+00:00,-301.69761643775354
2024-09-26 18:00:00+00:00,-345.3536826406462
2024-09-26 19:00:00+00:00,-345.0212345056257
2024-09-27 13:00:00+00:00,-500.2319201609314
2024-09-27 14:00:00+00:00,-563.9206979588204
2024-09-27 16:00:00+00:00,-453.02802303507633
2024-09-27 17:00:00+00:00,-416.38502261641065
2024-09-27 18:00:00+00:00,-404.2184464147895
2024-09-27 19:00:00+00:00,-419.8992749718096
2024-09-30 13:00:00+00:00,-327.14325330731674
2024-09-30 14:00:00+00:00,-277.58433201164894
2024-09-30 15:00:00+00:00,-285.2933228797853
2024-09-30 16:00:00+00:00,-315.31526119627637
2024-09-30 17:00:00+00:00,-288.97975669931714
2024-09-30 19:00:00+00:00,-318.8934512361181
2024-10-01 13:00:00+00:00,-185.9401654882683
2024-10-01 14:00:00+00:00,-193.04887901487325
2024-10-01 15:00:00+00:00,-198.91448834250554
2024-10-01 16:00:00+00:00,-164.75868224849316
2024-10-01 17:00:00+00:00,-211.53815069452915
2024-10-01 19:00:00+00:00,-187.32482432518222
2024-10-02 13:00:00+00:00,-159.67656065928628
2024-10-02 14:00:00+00:00,-186.62641991948362
2024-10-02 15:00:00+00:00,-194.5514059674914
2024-10-02 16:00:00+00:00,-173.6630750096519
2024-10-02 18:00:00+00:00,-179.26779543472787
2024-10-02 19:00:00+00:00,-189.47810436590427
2024-10-03 13:00:00+00:00,-101.67988764024003
2024-10-03 19:00:00+00:00,-60.62373108766422
2024-10-04 13:00:00+00:00,-68.17924462814078
2024-10-04 15:00:00+00:00,-40.8729724375648
2024-10-04 16:00:00+00:00,-60.55466478079237
2024-10-04 17:00:00+00:00,-56.19089643765011
2024-10-04 18:00:00+00:00,-71.81557360758113
2024-10-04 19:00:00+00:00,-95.37099453558824
2024-10-07 13:00:00+00:00,-103.46436753775555
2024-10-07 14:00:00+00:00,-101.64353563205363
2024-10-07 16:00:00+00:00,-99.2659618274388
2024-10-07 18:00:00+00:00,-109.0845268894025
2024-10-08 13:00:00+00:00,-82.86802678535355
2024-10-08 14:00:00+00:00,-131.52723640843556
2024-10-08 15:00:00+00:00,-148.51995911217935
2024-10-08 16:00:00+00:00,-71.63623189373945
2024-10-08 17:00:00+00:00,-56.685345970198085
2024-10-09 13:00:00+00:00,-89.86089468598436
2024-10-09 14:00:00+00:00,-136.2191821113259
2024-10-09 16:00:00+00:00,-116.88033761582427
2024-10-10 13:00:00+00:00,-24.302722263211507
2024-10-10 14:00:00+00:00,-50.06905133174911
2024-10-10 15:00:00+00:00,-37.58653008291162
2024-10-10 16:00:00+00:00,-33.22300082941976
2024-10-11 13:00:00+00:00,-22.391956250048516
2024-10-11 17:00:00+00:00,-32.5117702288873
2024-10-14 13:00:00+00:00,-70.52986670061665
2024-10-14 14:00:00+00:00,-63.2544458649226
2024-10-14 15:00:00+00:00,-66.00363957004618
2024-10-14 18:00:00+00:00,-24.959576111465722
2024-10-14 19:00:00+00:00,-24.125968297464652
2024-10-15 13:00:00+00:00,-169.9263243007468
2024-10-15 14:00:00+00:00,-176.33438138462904
2024-10-15 16:00:00+00:00,-128.9457692927619
2024-10-15 17:00:00+00:00,-110.23698152470622
2024-10-15 18:00:00+00:00,-80.58393275998412
2024-10-16 13:00:00+00:00,-115.1204616869206
2024-10-16 14:00:00+00:00,-122.72922441459254
2024-10-16 15:00:00+00:00,-87.66953215630573
2024-10-16 17:00:00+00:00,-91.46281305525355
2024-10-16 19:00:00+00:00,-66.9897346707849
2024-10-17 14:00:00+00:00,-19.532836452828903
2024-10-17 17:00:00+00:00,-51.10200919463378
2024-10-17 19:00:00+00:00,-117.63223629076836
2024-10-18 13:00:00+00:00,-83.76133488302553
2024-10-18 14:00:00+00:00,-70.71342215193243
2024-10-18 15:00:00+00:00,-99.89174479101285
2024-10-18 16:00:00+00:00,-90.37498159432738
2024-10-18 18:00:00+00:00,4.70633117074361
2024-10-18 19:00:00+00:00,-43.212281491676144
2024-10-21 14:00:00+00:00,62.36688096071757
2024-10-21 15:00:00+00:00,63.72180672839726
2024-10-21 16:00:00+00:00,62.57982442684614
2024-10-21 17:00:00+00:00,71.49524612076563
2024-10-21 18:00:00+00:00,63.37082486118018
2024-10-21 19:00:00+00:00,78.66342578583999
2024-10-22 13:00:00+00:00,214.16224567318585
2024-10-22 14:00:00+00:00,224.05216909236955
2024-10-22 16:00:00+00:00,241.3440929714991
2024-10-22 17:00:00+00:00,225.5614956661909
2024-10-22 18:00:00+00:00,233.33753982761644
2024-10-22 19:00:00+00:00,258.26549541734624
2024-10-23 13:00:00+00:00,254.21219392554693
2024-10-23 14:00:00+00:00,261.2124317160208
2024-10-23 15:00:00+00:00,264.7761405475603
2024-10-23 16:00:00+00:00,256.5759204659779
2024-10-23 17:00:00+00:00,280.26480647780954
2024-10-23 18:00:00+00:00,244.09753273674858
2024-10-23 19:00:00+00:00,235.61930338204954
2024-10-24 13:00:00+00:00,-23.220035695852943
2024-10-24 14:00:00+00:00,-57.546833579289185
2024-10-24 15:00:00+00:00,-141.93734486535035
2024-10-24 16:00:00+00:00,-141.93734486535035
2024-10-24 17:00:00+00:00,-141.93734486535035
2024-10-24 18:00:00+00:00,-141.93734486535035
2024-10-25 13:00:00+00:00,-141.93734486535035
2024-10-25 15:00:00+00:00,-141.93734486535035
2024-10-25 16:00:00+00:00,-141.93734486535035
2024-10-25 19:00:00+00:00,-141.93734486535035
2024-10-28 13:00:00+00:00,-141.93734486535035
2024-10-28 14:00:00+00:00,-141.93734486535035
2024-10-28 15:00:00+00:00,-141.93734486535035
2024-10-28 16:00:00+00:00,-141.93734486535035
2024-10-28 17:00:00+00:00,-141.93734486535035
2024-10-28 18:00:00+00:00,-141.93734486535035
2024-10-28 19:00:00+00:00,-141.93734486535035
2024-10-29 13:00:00+00:00,-141.93734486535035
2024-10-29 14:00:00+00:00,-141.93734486535035
2024-10-29 15:00:00+00:00,-141.93734486535035
2024-10-29 16:00:00+00:00,-141.93734486535035
2024-10-29 17:00:00+00:00,-141.93734486535035
2024-10-29 18:00:00+00:00,-141.93734486535035
2024-10-29 19:00:00+00:00,-141.93734486535035
2024-10-30 13:00:00+00:00,-141.93734486535035
2024-10-30 14:00:00+00:00,-141.93734486535035
2024-10-30 15:00:00+00:00,-141.93734486535035
2024-10-30 16:00:00+00:00,-141.93734486535035
2024-10-30 17:00:00+00:00,-141.93734486535035
2024-10-30 18:00:00+00:00,-141.93734486535035
2024-10-30 19:00:00+00:00,-141.93734486535035
2024-10-31 13:00:00+00:00,-141.93734486535035
2024-10-31 15:00:00+00:00,-141.93734486535035
2024-10-31 18:00:00+00:00,-141.93734486535035
2024-10-31 19:00:00+00:00,-141.93734486535035
2024-11-01 13:00:00+00:00,-141.93734486535035
2024-11-01 15:00:00+00:00,-141.93734486535035
2024-11-01 17:00:00+00:00,-141.93734486535035
2024-11-01 18:00:00+00:00,-141.93734486535035
2024-11-01 19:00:00+00:00,-141.93734486535035
2024-11-04 14:00:00+00:00,-141.93734486535035
2024-11-04 16:00:00+00:00,-141.93734486535035
2024-11-04 18:00:00+00:00,-141.93734486535035
2024-11-04 19:00:00+00:00,-141.93734486535035
2024-11-04 20:00:00+00:00,-141.93734486535035
2024-11-05 14:00:00+00:00,-141.93734486535035
2024-11-05 15:00:00+00:00,-141.93734486535035
2024-11-05 16:00:00+00:00,-141.93734486535035
2024-11-05 18:00:00+00:00,-141.93734486535035
2024-11-05 19:00:00+00:00,-141.93734486535035
2024-11-05 20:00:00+00:00,-141.93734486535035
2024-11-06 14:00:00+00:00,-141.93734486535035
2024-11-06 15:00:00+00:00,-141.93734486535035
2024-11-06 16:00:00+00:00,-141.93734486535035
2024-11-06 17:00:00+00:00,-141.93734486535035
2024-11-06 19:00:00+00:00,-141.93734486535035
2024-11-06 20:00:00+00:00,-141.93734486535035
2024-11-07 14:00:00+00:00,-141.93734486535035
2024-11-07 15:00:00+00:00,-141.93734486535035
2024-11-07 17:00:00+00:00,-141.93734486535035
2024-11-07 18:00:00+00:00,-141.93734486535035
2024-11-07 19:00:00+00:00,-141.93734486535035
2024-11-08 14:00:00+00:00,-141.93734486535035
2024-11-08 15:00:00+00:00,-141.93734486535035
2024-11-08 16:00:00+00:00,-141.93734486535035
2024-11-08 17:00:00+00:00,-141.93734486535035
2024-11-08 18:00:00+00:00,-141.93734486535035
2024-11-08 19:00:00+00:00,-141.93734486535035
2024-11-08 20:00:00+00:00,-141.93734486535035
2024-11-11 14:00:00+00:00,-141.93734486535035
2024-11-11 15:00:00+00:00,-141.93734486535035
2024-11-11 18:00:00+00:00,-141.93734486535035
2024-11-11 19:00:00+00:00,-141.93734486535035
2024-11-11 20:00:00+00:00,-141.93734486535035
2024-11-12 14:00:00+00:00,-141.93734486535035
2024-11-12 15:00:00+00:00,-198.2792421903273
2024-11-12 16:00:00+00:00,-221.78775004691147
2024-11-12 17:00:00+00:00,-231.60245403390886
2024-11-12 18:00:00+00:00,-235.868424665743
2024-11-12 19:00:00+00:00,-251.80685484287721
2024-11-12 20:00:00+00:00,-284.6703280821721
2024-11-13 14:00:00+00:00,-229.01392670843862
2024-11-13 15:00:00+00:00,-196.7073951527045
2024-11-13 17:00:00+00:00,-188.79795024828826
2024-11-13 18:00:00+00:00,-206.36204105447337
2024-11-13 19:00:00+00:00,-178.07436525748204
2024-11-13 20:00:00+00:00,-160.6449918369533
2024-11-14 15:00:00+00:00,-182.48120716995854
2024-11-14 16:00:00+00:00,-172.03373488452863
2024-11-14 17:00:00+00:00,-144.8894645503445
2024-11-14 18:00:00+00:00,-132.18686372608917
2024-11-14 19:00:00+00:00,-123.85650553926286
2024-11-14 20:00:00+00:00,-124.51677190333555
2024-11-15 14:00:00+00:00,-173.24992150115338
2024-11-15 15:00:00+00:00,-186.69533503704392
2024-11-15 16:00:00+00:00,-183.5253121776951
2024-11-15 17:00:00+00:00,-181.99533654246235
2024-11-15 18:00:00+00:00,-189.63474220321277
2024-11-15 19:00:00+00:00,-200.7697271005194
2024-11-15 20:00:00+00:00,-200.18628036918295
2024-11-18 14:00:00+00:00,-149.94009743869825
2024-11-18 15:00:00+00:00,-215.4069758512477
2024-11-18 17:00:00+00:00,-183.4946007123101
2024-11-18 18:00:00+00:00,-216.09152371723565
2024-11-18 19:00:00+00:00,-249.70028503186143
2024-11-18 20:00:00+00:00,-228.2726976425986
2024-11-19 14:00:00+00:00,-353.34833458916404
2024-11-19 15:00:00+00:00,-366.62367302824583
2024-11-19 16:00:00+00:00,-384.78437703906485
2024-11-19 17:00:00+00:00,-399.9411306452075
2024-11-19 18:00:00+00:00,-394.1225323559727
2024-11-19 19:00:00+00:00,-409.0522916920334
2024-11-19 20:00:00+00:00,-421.009132479575
2024-11-20 14:00:00+00:00,-418.4600745385462
2024-11-20 15:00:00+00:00,-440.69299810755746
2024-11-20 16:00:00+00:00,-422.19458072933554
2024-11-20 17:00:00+00:00,-416.93846236922633
2024-11-20 18:00:00+00:00,-415.14097505888793
2024-11-20 19:00:00+00:00,-412.19127853272886
2024-11-20 20:00:00+00:00,-396.9291624687692
2024-11-21 14:00:00+00:00,-412.2698497499474
2024-11-21 15:00:00+00:00,-366.16076279283715
2024-11-21 16:00:00+00:00,-355.5442847215507
2024-11-21 17:00:00+00:00,-324.8801263966875
2024-11-21 18:00:00+00:00,-334.48902035866024
2024-11-21 19:00:00+00:00,-336.9615104847884
2024-11-21 20:00:00+00:00,-327.9251339940945
2024-11-22 14:00:00+00:00,-348.7837909601869
2024-11-22 15:00:00+00:00,-339.06412569603225
2024-11-22 16:00:00+00:00,-335.0600063890053
2024-11-22 18:00:00+00:00,-355.7978750413373
2024-11-22 19:00:00+00:00,-351.6979727016768
2024-11-25 14:00:00+00:00,-90.59719703412185
2024-11-25 15:00:00+00:00,-68.76090524560584
2024-11-25 16:00:00+00:00,-102.08506517444508
2024-11-25 17:00:00+00:00,-95.8632660746392
2024-11-25 18:00:00+00:00,-123.73028338965395
2024-11-25 19:00:00+00:00,-92.63575733631797
2024-11-25 20:00:00+00:00,-86.81493550122055
2024-11-26 14:00:00+00:00,-212.0957547819022
2024-11-26 15:00:00+00:00,-215.4502524273439
2024-11-26 16:00:00+00:00,-196.73421289531808
2024-11-26 17:00:00+00:00,-189.53505677566937
2024-11-26 18:00:00+00:00,-187.4489612749094
2024-11-26 19:00:00+00:00,-238.6876198892516
2024-11-26 20:00:00+00:00,-226.25557610399758
2024-11-27 14:00:00+00:00,-178.12882661502957
2024-11-27 15:00:00+00:00,-184.02384160749105
2024-11-27 16:00:00+00:00,-188.31456570262299
2024-11-27 17:00:00+00:00,-205.51300854210433
2024-11-27 18:00:00+00:00,-215.57927449391997
2024-11-27 19:00:00+00:00,-210.40395089689184
2024-11-27 20:00:00+00:00,-206.79577126543168
2024-11-29 14:00:00+00:00,-191.09231856081792
2024-11-29 15:00:00+00:00,-179.4721419797938
2024-11-29 16:00:00+00:00,-144.68798588322198
2024-12-02 14:00:00+00:00,-117.03752236662683
2024-12-02 15:00:00+00:00,-96.79137642249343
2024-12-02 17:00:00+00:00,-41.00414919284373
2024-12-02 18:00:00+00:00,-28.879236710812304
2024-12-02 19:00:00+00:00,-4.336356464597895
2024-12-02 20:00:00+00:00,14.304907183437553
2024-12-03 14:00:00+00:00,-69.70772419292426
2024-12-03 15:00:00+00:00,-98.51462387351583
2024-12-03 16:00:00+00:00,-37.01259499652923
2024-12-03 17:00:00+00:00,-28.29183537970269
2024-12-03 18:00:00+00:00,-21.761408192626753
2024-12-03 19:00:00+00:00,-6.29818101320501
2024-12-03 20:00:00+00:00,-9.472210677186276
2024-12-04 14:00:00+00:00,-16.741863527786464
2024-12-04 15:00:00+00:00,-2.127773270452785
2024-12-04 16:00:00+00:00,16.959933107365817
2024-12-04 17:00:00+00:00,-0.44184439344105186
2024-12-04 18:00:00+00:00,3.7660815362944042
2024-12-04 19:00:00+00:00,20.796452681284524
2024-12-05 14:00:00+00:00,-31.239424093823512
2024-12-05 15:00:00+00:00,-19.981899298272893
2024-12-05 16:00:00+00:00,-31.4882905513971
2024-12-05 17:00:00+00:00,18.09178463180948
2024-12-05 18:00:00+00:00,20.256554874452497
2024-12-05 19:00:00+00:00,-27.2270710339831
2024-12-05 20:00:00+00:00,-23.87873932501432
2024-12-06 14:00:00+00:00,-44.940510808885875
2024-12-06 15:00:00+00:00,-95.04993041193792
2024-12-06 16:00:00+00:00,-71.09228015583068
2024-12-06 17:00:00+00:00,-48.868062301011406
2024-12-06 18:00:00+00:00,-47.92319455115263
2024-12-06 20:00:00+00:00,-24.681600141064866
2024-12-09 14:00:00+00:00,90.0615881709766
2024-12-09 15:00:00+00:00,87.74514724419726
2024-12-09 16:00:00+00:00,111.17333854282359
2024-12-09 17:00:00+00:00,119.53873955293523
2024-12-09 19:00:00+00:00,57.67606564150113
2024-12-09 20:00:00+00:00,23.401499717236092
2024-12-10 14:00:00+00:00,-146.30510873676445
2024-12-10 15:00:00+00:00,-70.08522137369432
2024-12-10 16:00:00+00:00,-60.62960256706613
2024-12-10 18:00:00+00:00,-36.6474189912079
2024-12-10 19:00:00+00:00,-37.14909237981457
2024-12-11 14:00:00+00:00,-161.3648202177477
2024-12-11 15:00:00+00:00,-177.11931255735283
2024-12-11 16:00:00+00:00,-174.31679619909136
2024-12-11 17:00:00+00:00,-187.69983113479924
2024-12-11 18:00:00+00:00,-237.89029731876676
2024-12-11 19:00:00+00:00,-256.4617204164299
2024-12-11 20:00:00+00:00,-276.402293750486
2024-12-12 14:00:00+00:00,-226.56700068657148
2024-12-12 15:00:00+00:00,-183.66890275729853
2024-12-12 16:00:00+00:00,-180.10246826099993
2024-12-12 18:00:00+00:00,-183.830492283459
2024-12-12 19:00:00+00:00,-160.0576535758767
2024-12-12 20:00:00+00:00,-143.0915574834842
2024-12-13 16:00:00+00:00,-128.91351618622576
2024-12-13 17:00:00+00:00,-139.264819028977
2024-12-13 19:00:00+00:00,-83.05730249132243
2024-12-13 20:00:00+00:00,-55.86357106450018
2024-12-16 14:00:00+00:00,-16.897370111567753
2024-12-16 15:00:00+00:00,-59.543565315192254
2024-12-16 16:00:00+00:00,-72.01181807129197
2024-12-16 17:00:00+00:00,-87.27123862800568
2024-12-16 18:00:00+00:00,-102.72491063289101
2024-12-16 19:00:00+00:00,-94.43086448621466
2024-12-16 20:00:00+00:00,-144.9059320559696
2024-12-17 14:00:00+00:00,-169.69345181157664
2024-12-17 15:00:00+00:00,-167.7631352430045
2024-12-17 16:00:00+00:00,-163.50945737347507
2024-12-17 17:00:00+00:00,-145.9508731368918
2024-12-17 20:00:00+00:00,-166.4408509303782
2024-12-18 14:00:00+00:00,-53.95573220850096
2024-12-18 15:00:00+00:00,-46.77235747202739
2024-12-18 16:00:00+00:00,25.056097759368363
2024-12-18 18:00:00+00:00,-7.285676232627573
2024-12-18 19:00:00+00:00,-35.85790121054837
2024-12-18 20:00:00+00:00,-85.83427141182074
2024-12-19 14:00:00+00:00,-109.68231443205738
2024-12-19 15:00:00+00:00,-128.90480126556668
2024-12-19 16:00:00+00:00,-111.43827675078187
2024-12-19 17:00:00+00:00,-123.1297313702659
2024-12-19 18:00:00+00:00,-156.98889058339898
2024-12-19 19:00:00+00:00,-151.54595727244947
2024-12-19 20:00:00+00:00,-161.36266466176173
2024-12-20 14:00:00+00:00,-218.8873833021946
2024-12-20 15:00:00+00:00,-147.00128450989718
2024-12-20 16:00:00+00:00,-119.50735998390334
2024-12-20 17:00:00+00:00,-142.71143620700616
2024-12-20 18:00:00+00:00,-147.49012802353815
2024-12-20 19:00:00+00:00,-188.83303606996878
2024-12-20 20:00:00+00:00,-195.82437009013717
2024-12-23 14:00:00+00:00,-213.67501347956443
2024-12-23 15:00:00+00:00,-222.2939798568119
2024-12-23 16:00:00+00:00,-189.61882133332887
2024-12-23 17:00:00+00:00,-201.37557880899564
2024-12-23 18:00:00+00:00,-202.18113513229343
2024-12-23 19:00:00+00:00,-187.76610038324503
2024-12-23 20:00:00+00:00,-187.47749219282477
2024-12-24 14:00:00+00:00,-181.08790787324705
2024-12-24 15:00:00+00:00,-164.58787851319144
2024-12-24 16:00:00+00:00,-139.26407517812183
2024-12-26 14:00:00+00:00,-169.5297544733797
2024-12-26 15:00:00+00:00,-133.21815968785143
2024-12-26 16:00:00+00:00,-151.88064195593338
2024-12-26 17:00:00+00:00,-129.98185837359094
2024-12-26 18:00:00+00:00,-136.56248459218864
2024-12-26 19:00:00+00:00,-140.60659744989843
2024-12-26 20:00:00+00:00,-117.28796326352845
2024-12-27 14:00:00+00:00,-125.45873532650964
2024-12-27 15:00:00+00:00,-150.89402282716836
2024-12-27 16:00:00+00:00,-176.14292762099066
2024-12-27 17:00:00+00:00,-178.26676145228237
2024-12-27 18:00:00+00:00,-156.55326137984562
2024-12-27 19:00:00+00:00,-161.95692491933013
2024-12-27 20:00:00+00:00,-154.78231079157098
2024-12-30 14:00:00+00:00,-216.29652802114327
2024-12-30 15:00:00+00:00,-175.01589162499275
2024-12-30 16:00:00+00:00,-163.1753603851993
2024-12-30 17:00:00+00:00,-179.19458532541506
2024-12-30 18:00:00+00:00,-172.92634197551453
2024-12-30 19:00:00+00:00,-181.97868552077946
2024-12-30 20:00:00+00:00,-185.81873993794682
2024-12-31 14:00:00+00:00,-167.18976905221695
2024-12-31 15:00:00+00:00,-167.38306617138664
2024-12-31 16:00:00+00:00,-202.89285962041518
2024-12-31 17:00:00+00:00,-202.09097010193554
2024-12-31 18:00:00+00:00,-202.20984319536223
2024-12-31 19:00:00+00:00,-192.39302677489968
2025-01-02 14:00:00+00:00,-378.4949587318182
2025-01-02 15:00:00+00:00,-384.67472622174057
2025-01-02 16:00:00+00:00,-392.59415646345116
2025-01-02 17:00:00+00:00,-423.4823166495572
2025-01-02 18:00:00+00:00,-441.3871887671809
2025-01-02 19:00:00+00:00,-442.6683130996702
2025-01-02 20:00:00+00:00,-492.85877928363726
2025-01-03 14:00:00+00:00,-550.1070780862343
2025-01-03 15:00:00+00:00,-587.6344650352455
2025-01-03 16:00:00+00:00,-530.2078051781688
2025-01-03 17:00:00+00:00,-522.1017801291664
2025-01-03 18:00:00+00:00,-520.822552249089
2025-01-03 19:00:00+00:00,-517.9788759106922
2025-01-03 20:00:00+00:00,-547.7986528499662
2025-01-06 14:00:00+00:00,-489.3191016529531
2025-01-06 15:00:00+00:00,-465.89739460390473
2025-01-06 18:00:00+00:00,-458.064989475772
2025-01-06 19:00:00+00:00,-477.24394791534814
2025-01-06 20:00:00+00:00,-479.7599664354082
2025-01-07 14:00:00+00:00,-352.0485709875045
2025-01-07 15:00:00+00:00,-367.0898887568906
2025-01-07 16:00:00+00:00,-408.105138984984
2025-01-07 17:00:00+00:00,-404.93311272331897
2025-01-07 18:00:00+00:00,-412.9954941034989
2025-01-07 19:00:00+00:00,-450.8263204389651
2025-01-07 20:00:00+00:00,-454.7584029019657
2025-01-08 14:00:00+00:00,-544.0954344956651
2025-01-08 15:00:00+00:00,-529.3627794704331
2025-01-08 16:00:00+00:00,-538.1425623690096
2025-01-08 17:00:00+00:00,-507.3616518684724
2025-01-08 18:00:00+00:00,-506.8607494034508
2025-01-08 19:00:00+00:00,-510.0405027996601
2025-01-08 20:00:00+00:00,-523.7272411452423
2025-01-10 14:00:00+00:00,-640.8537436594041
2025-01-10 15:00:00+00:00,-632.3490312227284
2025-01-10 16:00:00+00:00,-655.4660823322547
2025-01-10 17:00:00+00:00,-632.9302544082014
2025-01-10 19:00:00+00:00,-638.4137583817677
2025-01-10 20:00:00+00:00,-672.359145452997
2025-01-13 14:00:00+00:00,-588.0708907534485
2025-01-13 15:00:00+00:00,-567.4221028218711
2025-01-13 16:00:00+00:00,-579.406172436407
2025-01-13 17:00:00+00:00,-575.1772480301745
2025-01-13 18:00:00+00:00,-587.1970525729237
2025-01-13 19:00:00+00:00,-608.9726041520933
2025-01-13 20:00:00+00:00,-577.379653078682
2025-01-14 14:00:00+00:00,-526.0979902366485
2025-01-14 15:00:00+00:00,-553.0492325055737
2025-01-14 16:00:00+00:00,-559.8721277385229
2025-01-14 17:00:00+00:00,-540.2349947112328
2025-01-14 18:00:00+00:00,-539.7630380008017
2025-01-14 19:00:00+00:00,-521.516182587398
2025-01-14 20:00:00+00:00,-528.0698317968375
2025-01-15 14:00:00+00:00,-491.9745565398701
2025-01-15 15:00:00+00:00,-515.6460739692558
2025-01-15 16:00:00+00:00,-524.3853566988829
2025-01-15 18:00:00+00:00,-536.6886475796794
2025-01-15 19:00:00+00:00,-527.0487207853434
2025-01-15 20:00:00+00:00,-534.5112509985936
2025-01-16 14:00:00+00:00,-545.2996352082397
2025-01-16 15:00:00+00:00,-531.8522182700311
2025-01-16 16:00:00+00:00,-501.6690485842062
2025-01-16 17:00:00+00:00,-494.16677663811026
2025-01-16 19:00:00+00:00,-461.3450485339779
2025-01-16 20:00:00+00:00,-425.3807987459022
2025-01-17 14:00:00+00:00,-360.2193000520918
2025-01-17 15:00:00+00:00,-379.56210323798166
2025-01-17 16:00:00+00:00,-343.06238220422745
2025-01-17 18:00:00+00:00,-365.0247487342374
2025-01-17 19:00:00+00:00,-377.8268875779212
2025-01-17 20:00:00+00:00,-385.7898462135628
2025-01-21 14:00:00+00:00,-293.09429796062557
2025-01-21 15:00:00+00:00,-241.40496966832012
2025-01-21 16:00:00+00:00,-222.2739867144032
2025-01-21 17:00:00+00:00,-257.34740665008815
2025-01-21 19:00:00+00:00,-244.6890263246935
2025-01-21 20:00:00+00:00,-226.99416186745316
2025-01-22 14:00:00+00:00,-211.79273380797798
2025-01-22 16:00:00+00:00,-223.13283662537827
2025-01-22 17:00:00+00:00,-234.92408108212388
2025-01-22 19:00:00+00:00,-233.29889241445676
2025-01-22 20:00:00+00:00,-223.67278663707043
2025-01-23 14:00:00+00:00,-164.8742474115625
2025-01-23 15:00:00+00:00,-139.3052686153771
2025-01-23 16:00:00+00:00,-155.42227999053995
2025-01-23 17:00:00+00:00,-169.44268636140757
2025-01-23 18:00:00+00:00,-176.7995213991011
2025-01-23 19:00:00+00:00,-177.41815790290192
2025-01-23 20:00:00+00:00,-200.24059061505926
2025-01-24 14:00:00+00:00,-172.788673448297
2025-01-24 15:00:00+00:00,-154.2495964644661
2025-01-24 16:00:00+00:00,-174.9294204146963
2025-01-24 17:00:00+00:00,-232.97682504654625
2025-01-24 18:00:00+00:00,-223.61701768569353
2025-01-24 19:00:00+00:00,-246.59253382279275
2025-01-24 20:00:00+00:00,-250.0571750795105
2025-01-27 14:00:00+00:00,-186.6058345597687
2025-01-27 15:00:00+00:00,-129.4530464413965
2025-01-27 16:00:00+00:00,-88.95897129435983
2025-01-27 17:00:00+00:00,-105.1286970640205
2025-01-27 18:00:00+00:00,-104.2936483685898
2025-01-27 19:00:00+00:00,-119.79840053962674
2025-01-27 20:00:00+00:00,-129.39928089233587
2025-01-28 14:00:00+00:00,-150.8949299952807
2025-01-28 15:00:00+00:00,-137.50770276827853
2025-01-28 16:00:00+00:00,-182.1967975145729
2025-01-28 17:00:00+00:00,-173.10015277591424
2025-01-28 18:00:00+00:00,-192.5056995734671
2025-01-28 19:00:00+00:00,-173.3751969059185
2025-01-29 14:00:00+00:00,-197.35614474022455
2025-01-29 15:00:00+00:00,-181.6135709267837
2025-01-29 16:00:00+00:00,-186.402499898444
2025-01-29 17:00:00+00:00,-198.9308333345972
2025-01-29 18:00:00+00:00,-217.99967792003574
2025-01-29 19:00:00+00:00,-240.11164523659684
2025-01-29 20:00:00+00:00,-246.8933825706575
2025-01-30 14:00:00+00:00,-362.4169594890866
2025-01-30 15:00:00+00:00,-348.8315463022988
2025-01-30 16:00:00+00:00,-340.45451442231735
2025-01-30 18:00:00+00:00,-300.21445443439467
2025-01-30 19:00:00+00:00,-298.29242382349474
2025-01-30 20:00:00+00:00,-316.7551062735011
2025-01-31 14:00:00+00:00,-721.6532527454715
2025-01-31 15:00:00+00:00,-776.5498497357025
2025-01-31 16:00:00+00:00,-760.7504791672953
2025-01-31 17:00:00+00:00,-732.5858878048433
2025-01-31 18:00:00+00:00,-728.902379080954
2025-01-31 19:00:00+00:00,-734.3327994860512
2025-01-31 20:00:00+00:00,-745.2146909776059
2025-02-03 14:00:00+00:00,-926.7018347718424
2025-02-03 15:00:00+00:00,-954.8152085238454
2025-02-03 16:00:00+00:00,-925.5034375791962
2025-02-03 17:00:00+00:00,-956.1457265892834
2025-02-03 18:00:00+00:00,-973.1098192793601
2025-02-03 19:00:00+00:00,-974.2907887631075
2025-02-03 20:00:00+00:00,-975.737616376294
2025-02-04 16:00:00+00:00,-1017.3859041414628
2025-02-04 18:00:00+00:00,-1007.9986478100673
2025-02-04 20:00:00+00:00,-1036.3137725776023
2025-02-05 14:00:00+00:00,-1144.3361409100833
2025-02-05 15:00:00+00:00,-1136.227420353835
2025-02-05 16:00:00+00:00,-1106.466254930567
2025-02-05 17:00:00+00:00,-1107.1697030182129
2025-02-05 19:00:00+00:00,-1067.0577433435055
2025-02-05 20:00:00+00:00,-1049.4666755281605
2025-02-06 14:00:00+00:00,-974.2745936058899
2025-02-06 15:00:00+00:00,-905.5069186829346
2025-02-06 17:00:00+00:00,-792.7602209846581
2025-02-06 18:00:00+00:00,-830.333831834847
2025-02-06 19:00:00+00:00,-847.8980379159236
2025-02-06 20:00:00+00:00,-838.2758441988503
2025-02-07 14:00:00+00:00,-874.720268242611
2025-02-07 15:00:00+00:00,-945.7996831015349
2025-02-07 16:00:00+00:00,-929.6559148607598
2025-02-07 17:00:00+00:00,-927.415598200644
2025-02-07 19:00:00+00:00,-918.4483689531837
2025-02-07 20:00:00+00:00,-901.5405377064388
2025-02-10 14:00:00+00:00,-980.2263457066236
2025-02-10 15:00:00+00:00,-1005.6578322593672
2025-02-10 19:00:00+00:00,-1029.8355887051177
2025-02-10 20:00:00+00:00,-1039.4862278022551
2025-02-11 14:00:00+00:00,-983.4541409196656
2025-02-11 16:00:00+00:00,-960.8572800678049
2025-02-11 17:00:00+00:00,-962.7765405152992
2025-02-11 19:00:00+00:00,-962.6352256864185
2025-02-11 20:00:00+00:00,-935.2566827110712
2025-02-12 14:00:00+00:00,-1021.7685610791734
2025-02-12 15:00:00+00:00,-1073.7192687349047
2025-02-12 16:00:00+00:00,-1034.0743305099584
2025-02-12 17:00:00+00:00,-1012.711710278222
2025-02-12 18:00:00+00:00,-971.2342981264852
2025-02-12 19:00:00+00:00,-987.2737210265765
2025-02-12 20:00:00+00:00,-1018.2789667461849
2025-02-13 14:00:00+00:00,-895.9937125503377
2025-02-13 15:00:00+00:00,-895.3707442297023
2025-02-13 16:00:00+00:00,-900.1496561897806
2025-02-13 17:00:00+00:00,-889.4883428492544
2025-02-13 18:00:00+00:00,-888.1803547012489
2025-02-13 19:00:00+00:00,-888.4627325411742
2025-02-13 20:00:00+00:00,-878.8593768247672
2025-02-14 14:00:00+00:00,-829.017986692158
2025-02-14 15:00:00+00:00,-836.6488087434466
2025-02-14 16:00:00+00:00,-834.2853700109829
2025-02-14 17:00:00+00:00,-820.3617222714755
2025-02-14 18:00:00+00:00,-818.1778403357672
2025-02-14 19:00:00+00:00,-802.9054349118182
2025-02-14 20:00:00+00:00,-820.207894536743
2025-02-18 14:00:00+00:00,-802.8766746438902
2025-02-18 15:00:00+00:00,-783.9551171762517
2025-02-18 16:00:00+00:00,-799.439128932365
2025-02-18 17:00:00+00:00,-812.0829266184176
2025-02-18 18:00:00+00:00,-819.1325254842345
2025-02-18 19:00:00+00:00,-819.5414500270354
2025-02-18 20:00:00+00:00,-782.7756507202921
2025-02-19 14:00:00+00:00,-782.7756507202921
2025-02-19 15:00:00+00:00,-782.7756507202921
2025-02-19 16:00:00+00:00,-782.7756507202921
2025-02-19 17:00:00+00:00,-782.7756507202921
2025-02-19 18:00:00+00:00,-782.7756507202921
2025-02-19 19:00:00+00:00,-782.7756507202921
2025-02-19 20:00:00+00:00,-782.7756507202921
2025-02-20 14:00:00+00:00,-782.7756507202921
2025-02-20 15:00:00+00:00,-782.7756507202921
2025-02-20 16:00:00+00:00,-782.7756507202921
2025-02-20 17:00:00+00:00,-782.7756507202921
2025-02-20 18:00:00+00:00,-782.7756507202921
2025-02-20 19:00:00+00:00,-782.7756507202921
2025-02-21 14:00:00+00:00,-782.7756507202921
2025-02-21 15:00:00+00:00,-782.7756507202921
2025-02-21 16:00:00+00:00,-782.7756507202921
2025-02-21 17:00:00+00:00,-782.7756507202921
2025-02-21 18:00:00+00:00,-782.7756507202921
2025-02-21 19:00:00+00:00,-782.7756507202921
2025-02-21 20:00:00+00:00,-782.7756507202921
2025-02-24 14:00:00+00:00,-782.7756507202921
2025-02-24 15:00:00+00:00,-782.7756507202921
2025-02-24 16:00:00+00:00,-782.7756507202921
2025-02-24 17:00:00+00:00,-782.7756507202921
2025-02-24 18:00:00+00:00,-782.7756507202921
2025-02-24 19:00:00+00:00,-782.7756507202921
2025-02-24 20:00:00+00:00,-782.7756507202921
2025-02-25 14:00:00+00:00,-782.7756507202921
2025-02-25 15:00:00+00:00,-782.7756507202921
2025-02-25 16:00:00+00:00,-782.7756507202921
2025-02-25 17:00:00+00:00,-782.7756507202921
2025-02-25 18:00:00+00:00,-782.7756507202921
2025-02-25 19:00:00+00:00,-782.7756507202921
2025-02-25 20:00:00+00:00,-782.7756507202921
2025-02-26 14:00:00+00:00,-782.7756507202921
2025-02-26 15:00:00+00:00,-782.7756507202921
2025-02-26 16:00:00+00:00,-782.7756507202921
2025-02-26 17:00:00+00:00,-782.7756507202921
2025-02-26 18:00:00+00:00,-782.7756507202921
2025-02-26 19:00:00+00:00,-782.7756507202921
2025-02-26 20:00:00+00:00,-782.7756507202921
2025-02-27 14:00:00+00:00,-782.7756507202921
2025-02-27 15:00:00+00:00,-782.7756507202921
2025-02-27 16:00:00+00:00,-782.7756507202921
2025-02-27 17:00:00+00:00,-782.7756507202921
2025-02-27 18:00:00+00:00,-782.7756507202921
2025-02-27 19:00:00+00:00,-782.7756507202921
2025-02-27 20:00:00+00:00,-782.7756507202921
2025-02-28 14:00:00+00:00,-782.7756507202921
2025-02-28 15:00:00+00:00,-782.7756507202921
2025-02-28 16:00:00+00:00,-782.7756507202921
2025-02-28 17:00:00+00:00,-782.7756507202921
2025-02-28 18:00:00+00:00,-782.7756507202921
2025-02-28 19:00:00+00:00,-782.7756507202921
2025-02-28 20:00:00+00:00,-782.7756507202921
2025-03-03 14:00:00+00:00,-782.7756507202921
2025-03-03 15:00:00+00:00,-782.7756507202921
2025-03-03 16:00:00+00:00,-782.7756507202921
2025-03-03 17:00:00+00:00,-782.7756507202921
2025-03-03 18:00:00+00:00,-782.7756507202921
2025-03-03 19:00:00+00:00,-782.7756507202921
2025-03-03 20:00:00+00:00,-782.7756507202921
2025-03-04 14:00:00+00:00,-782.7756507202921
2025-03-04 15:00:00+00:00,-837.8129159773865
2025-03-04 16:00:00+00:00,-813.3971017492865
2025-03-04 17:00:00+00:00,-833.5976734368803
2025-03-04 18:00:00+00:00,-831.9657359299082
2025-03-04 19:00:00+00:00,-844.8235084882045
2025-03-04 20:00:00+00:00,-913.5111322588624
2025-03-05 14:00:00+00:00,-838.5111140601155
2025-03-05 15:00:00+00:00,-907.4409455152962
2025-03-05 16:00:00+00:00,-830.1951362364881
2025-03-05 17:00:00+00:00,-760.8246133391634
2025-03-05 18:00:00+00:00,-662.9431330038823
2025-03-05 19:00:00+00:00,-617.3496965886584
2025-03-05 20:00:00+00:00,-658.1343165875404
2025-03-06 14:00:00+00:00,-572.99098688225
2025-03-06 15:00:00+00:00,-571.1018997457717
2025-03-06 16:00:00+00:00,-601.3507195249312
2025-03-06 17:00:00+00:00,-585.7245830107726
2025-03-06 18:00:00+00:00,-563.8415996020777
2025-03-06 19:00:00+00:00,-521.2874234228549
2025-03-06 20:00:00+00:00,-569.5985370535508
2025-03-07 14:00:00+00:00,-687.1976250394082
2025-03-07 15:00:00+00:00,-644.9867539609708
2025-03-07 17:00:00+00:00,-567.4666901035124
2025-03-07 18:00:00+00:00,-527.6861966967326
2025-03-07 19:00:00+00:00,-573.4490063548858
2025-03-07 20:00:00+00:00,-565.3961784077312
2025-03-10 13:00:00+00:00,-438.72405352567694
2025-03-10 14:00:00+00:00,-434.77294020312377
2025-03-10 15:00:00+00:00,-432.1463462169564
2025-03-10 16:00:00+00:00,-452.7671220917376
2025-03-10 17:00:00+00:00,-502.69201854731375
2025-03-10 18:00:00+00:00,-514.6713521262586
2025-03-10 19:00:00+00:00,-531.5518759525843
2025-03-11 13:00:00+00:00,-730.8327870730222
2025-03-11 14:00:00+00:00,-759.6996240667407
2025-03-11 15:00:00+00:00,-789.9792671031548
2025-03-11 16:00:00+00:00,-761.2158706536474
2025-03-11 17:00:00+00:00,-691.0852401035444
2025-03-11 18:00:00+00:00,-667.5466490438637
2025-03-11 19:00:00+00:00,-679.5721961874164
2025-03-12 13:00:00+00:00,-716.5006578982485
2025-03-12 14:00:00+00:00,-754.8739435700371
2025-03-12 15:00:00+00:00,-777.6087354127642
2025-03-12 16:00:00+00:00,-785.7316953841339
2025-03-12 17:00:00+00:00,-801.977519386147
2025-03-12 18:00:00+00:00,-826.4810937407797
2025-03-12 19:00:00+00:00,-862.8773168300328
2025-03-13 13:00:00+00:00,-866.0848221366657
2025-03-13 14:00:00+00:00,-962.831194194671
2025-03-13 15:00:00+00:00,-958.975503283364
2025-03-13 17:00:00+00:00,-957.5114493581066
2025-03-13 18:00:00+00:00,-968.4891468694093
2025-03-13 19:00:00+00:00,-949.8519825265585
2025-03-14 13:00:00+00:00,-925.2394939605293
2025-03-14 14:00:00+00:00,-861.1092259634197
2025-03-14 15:00:00+00:00,-910.8370174420093
2025-03-14 16:00:00+00:00,-848.6944259789117
2025-03-14 17:00:00+00:00,-846.4114511470458
2025-03-14 18:00:00+00:00,-830.7522214324224
2025-03-14 19:00:00+00:00,-834.8875558372699
2025-03-17 13:00:00+00:00,-891.7036125815139
2025-03-17 14:00:00+00:00,-909.5345245929198
2025-03-17 15:00:00+00:00,-942.7168299490547
2025-03-17 16:00:00+00:00,-925.2397213196344
2025-03-17 17:00:00+00:00,-908.0719569022697
2025-03-17 18:00:00+00:00,-878.9307076860298
2025-03-17 19:00:00+00:00,-883.8265202069491
2025-03-18 13:00:00+00:00,-922.2174339810542
2025-03-18 14:00:00+00:00,-963.25382588298
2025-03-18 15:00:00+00:00,-955.2812518941299
2025-03-18 16:00:00+00:00,-942.0459291410285
2025-03-18 17:00:00+00:00,-930.46638756371
2025-03-18 18:00:00+00:00,-922.6235565432091
2025-03-18 19:00:00+00:00,-916.2584348187086
2025-03-19 13:00:00+00:00,-898.4730748823953
2025-03-19 14:00:00+00:00,-910.9563772874973
2025-03-19 15:00:00+00:00,-910.4182343596761
2025-03-19 16:00:00+00:00,-952.4326339799644
2025-03-19 17:00:00+00:00,-993.6209177856717
2025-03-19 18:00:00+00:00,-952.3628132160009
2025-03-19 19:00:00+00:00,-960.709518356156
2025-03-20 13:00:00+00:00,-983.740026696042
2025-03-20 14:00:00+00:00,-1008.4560641867583
2025-03-20 15:00:00+00:00,-1003.4399470412658
2025-03-20 16:00:00+00:00,-1038.5498842788884
2025-03-20 17:00:00+00:00,-1061.0455727937283
2025-03-20 18:00:00+00:00,-1074.941708983161
2025-03-20 19:00:00+00:00,-1075.852261821499
2025-03-21 13:00:00+00:00,-1111.9280523423577
2025-03-21 14:00:00+00:00,-1083.6050472631719
2025-03-21 15:00:00+00:00,-1084.8199104888529
2025-03-21 16:00:00+00:00,-1023.5516708803757
2025-03-21 17:00:00+00:00,-1051.281317403252
2025-03-21 18:00:00+00:00,-1049.9942896523146
2025-03-21 19:00:00+00:00,-1087.0327532965
2025-03-24 13:00:00+00:00,-924.2045839352841
2025-03-24 14:00:00+00:00,-869.8161990187112
2025-03-24 15:00:00+00:00,-868.3069320202495
2025-03-24 16:00:00+00:00,-924.7158713517755
2025-03-24 17:00:00+00:00,-960.4851161044717
2025-03-24 18:00:00+00:00,-885.8221556708874
2025-03-24 19:00:00+00:00,-901.1323885047502
2025-03-25 13:00:00+00:00,-1002.3782663211009
2025-03-25 14:00:00+00:00,-999.6205163167118
2025-03-25 15:00:00+00:00,-979.1107189234971
2025-03-25 16:00:00+00:00,-1007.0541466755639
2025-03-25 17:00:00+00:00,-998.2416413145178
2025-03-25 18:00:00+00:00,-1007.1203697567257
2025-03-25 19:00:00+00:00,-1032.6270861002604
2025-03-26 13:00:00+00:00,-942.8762280210636
2025-03-26 14:00:00+00:00,-1006.5314095853979
2025-03-26 15:00:00+00:00,-1022.5902159821219
2025-03-26 16:00:00+00:00,-1097.4135538291953
2025-03-26 17:00:00+00:00,-1056.820661080836
2025-03-26 18:00:00+00:00,-1025.1360294302067
2025-03-26 19:00:00+00:00,-1006.5927448396523
2025-03-27 13:00:00+00:00,-1366.321314251471
2025-03-27 14:00:00+00:00,-1355.0812343122548
2025-03-27 15:00:00+00:00,-1397.6020667757466
2025-03-27 16:00:00+00:00,-1434.407857978067
2025-03-27 17:00:00+00:00,-1412.9461347093834
2025-03-27 18:00:00+00:00,-1327.3539281240653
2025-03-27 19:00:00+00:00,-1308.4967723542575
2025-03-28 13:00:00+00:00,-1306.1799963841256
2025-03-28 14:00:00+00:00,-1330.8258678891134
2025-03-28 15:00:00+00:00,-1333.0306433863623
2025-03-28 16:00:00+00:00,-1378.9024918964328
2025-03-28 17:00:00+00:00,-1379.6846852395445
2025-03-28 18:00:00+00:00,-1362.9914902787614
2025-03-28 19:00:00+00:00,-1357.8224059472814
2025-03-31 13:00:00+00:00,-1400.5559424156374
2025-03-31 14:00:00+00:00,-1383.985633282895
2025-03-31 15:00:00+00:00,-1385.525196958831
2025-03-31 16:00:00+00:00,-1377.178180558422
2025-03-31 17:00:00+00:00,-1355.7808096482338
2025-03-31 18:00:00+00:00,-1278.8852336028745
2025-03-31 19:00:00+00:00,-1237.4089769104073
2025-04-01 13:00:00+00:00,-1339.8711893113043
2025-04-01 14:00:00+00:00,-1288.754220139299
2025-04-01 15:00:00+00:00,-1267.3418930092712
2025-04-01 16:00:00+00:00,-1294.5126607187651
2025-04-01 17:00:00+00:00,-1314.2767128412397
2025-04-01 18:00:00+00:00,-1292.047989290575
2025-04-01 19:00:00+00:00,-1264.2006885038388
2025-04-02 13:00:00+00:00,-1318.5657563313828
2025-04-02 14:00:00+00:00,-1285.3118130297698
2025-04-02 16:00:00+00:00,-1260.5202657883788
2025-04-02 17:00:00+00:00,-1268.5613699394567
2025-04-02 18:00:00+00:00,-1248.6333060404688
2025-04-02 19:00:00+00:00,-1209.0995128088095
2025-04-03 13:00:00+00:00,-1555.5790031704128
2025-04-03 14:00:00+00:00,-1586.388132435779
2025-04-03 15:00:00+00:00,-1483.7002176134908
2025-04-03 16:00:00+00:00,-1511.3488682787563
2025-04-03 17:00:00+00:00,-1575.5373637468751
2025-04-03 18:00:00+00:00,-1601.5121869347388
2025-04-03 19:00:00+00:00,-1607.291052139514
2025-04-04 13:00:00+00:00,-1703.0221012801912
2025-04-04 14:00:00+00:00,-1670.1366001431707
2025-04-04 15:00:00+00:00,-1680.6680608877919
2025-04-04 16:00:00+00:00,-1645.6741517370126
2025-04-04 17:00:00+00:00,-1676.4727353642902
2025-04-04 18:00:00+00:00,-1646.778507999653
2025-04-04 19:00:00+00:00,-1709.8626472051337
2025-04-07 13:00:00+00:00,-1884.8368736283958
2025-04-07 14:00:00+00:00,-1965.7655943120126
2025-04-07 15:00:00+00:00,-1902.6535164368809
2025-04-07 16:00:00+00:00,-1861.588213165712
2025-04-07 17:00:00+00:00,-1888.9165617657025
2025-04-07 18:00:00+00:00,-1914.6497004222138
2025-04-07 19:00:00+00:00,-1895.5084435708438
2025-04-08 13:00:00+00:00,-2013.6960735287225
2025-04-08 14:00:00+00:00,-2056.9249905520437
2025-04-08 15:00:00+00:00,-2080.824903659146
2025-04-08 16:00:00+00:00,-2148.4288202223456
2025-04-08 17:00:00+00:00,-2210.510076431188
2025-04-08 18:00:00+00:00,-2269.3333279708154
2025-04-08 19:00:00+00:00,-2269.467410414264
2025-04-09 13:00:00+00:00,-2256.5055863157368
2025-04-09 14:00:00+00:00,-2224.3690668578174
2025-04-09 15:00:00+00:00,-2215.7035655736477
2025-04-09 16:00:00+00:00,-1962.4624686575642
2025-04-09 17:00:00+00:00,-1727.4909483202591
2025-04-09 18:00:00+00:00,-1752.286803568066
2025-04-09 19:00:00+00:00,-1696.0025672460918
2025-04-10 13:00:00+00:00,-2106.9990529546103
2025-04-10 14:00:00+00:00,-2197.590643108181
2025-04-10 15:00:00+00:00,-2251.362866519449
2025-04-10 16:00:00+00:00,-2220.8172770835686
2025-04-10 17:00:00+00:00,-2146.059077467478
2025-04-10 18:00:00+00:00,-2144.5739382858274
2025-04-10 19:00:00+00:00,-2132.024563239602
2025-04-11 13:00:00+00:00,-2386.6816071597154
2025-04-11 14:00:00+00:00,-2390.0296453252827
2025-04-11 15:00:00+00:00,-2346.058607747766
2025-04-11 16:00:00+00:00,-2305.152607842106
2025-04-11 17:00:00+00:00,-2281.670114838942
2025-04-11 18:00:00+00:00,-2228.8844460340742
2025-04-11 19:00:00+00:00,-2209.033397807025
2025-04-14 13:00:00+00:00,-2104.2196804120335
2025-04-14 14:00:00+00:00,-2149.4599368810373
2025-04-14 15:00:00+00:00,-2165.931419174078
2025-04-14 16:00:00+00:00,-2174.462130077002
2025-04-14 17:00:00+00:00,-2160.498969646598
2025-04-14 18:00:00+00:00,-2138.914360549875
2025-04-14 19:00:00+00:00,-2147.3907157869903
2025-04-15 13:00:00+00:00,-2249.512416816831
2025-04-15 14:00:00+00:00,-2224.7340473576846
2025-04-15 15:00:00+00:00,-2225.895002929303
2025-04-15 16:00:00+00:00,-2246.5701344698937
2025-04-15 17:00:00+00:00,-2263.791480927529
2025-04-15 18:00:00+00:00,-2265.5714385330825
2025-04-15 19:00:00+00:00,-2264.009848369853
2025-04-16 13:00:00+00:00,-2440.862441039067
2025-04-16 14:00:00+00:00,-2314.4415614802792
2025-04-16 15:00:00+00:00,-2377.094891657442
2025-04-16 17:00:00+00:00,-2428.739701066048
2025-04-16 18:00:00+00:00,-2465.7364776195823
2025-04-16 19:00:00+00:00,-2421.8098890933147
2025-04-17 13:00:00+00:00,-2288.026527679226
2025-04-17 14:00:00+00:00,-2255.9979656140413
2025-04-17 15:00:00+00:00,-2254.2710730725635
2025-04-17 16:00:00+00:00,-2265.43157642391
2025-04-17 17:00:00+00:00,-2222.0156580553457
2025-04-17 18:00:00+00:00,-2251.7309486111926
2025-04-17 19:00:00+00:00,-2261.046960640476
2025-04-21 13:00:00+00:00,-2342.234547730941
2025-04-21 14:00:00+00:00,-2346.9445528953424
2025-04-21 15:00:00+00:00,-2322.3943443626563
2025-04-21 16:00:00+00:00,-2332.51952892874
2025-04-21 17:00:00+00:00,-2327.2420513466523
2025-04-21 18:00:00+00:00,-2337.3464722855388
2025-04-21 19:00:00+00:00,-2315.8827165158154
2025-04-22 13:00:00+00:00,-2254.8155620699968
2025-04-22 14:00:00+00:00,-2198.5698926156797
2025-04-22 15:00:00+00:00,-2105.0011097331912
2025-04-22 16:00:00+00:00,-2188.1378442004234
2025-04-22 17:00:00+00:00,-2149.580730697274
2025-04-22 18:00:00+00:00,-2116.619837629337
2025-04-22 19:00:00+00:00,-2108.6841136521184
2025-04-23 13:00:00+00:00,-1806.160451832908
2025-04-23 14:00:00+00:00,-1876.8596841245837
2025-04-23 15:00:00+00:00,-2021.0967746185768
2025-04-23 16:00:00+00:00,-1990.4797279943512
2025-04-23 17:00:00+00:00,-2004.7244896285338
2025-04-23 18:00:00+00:00,-2051.6820186440646
2025-04-23 19:00:00+00:00,-2029.6305933047472
2025-04-24 13:00:00+00:00,-2023.0719130805442
2025-04-24 14:00:00+00:00,-2018.1088609991289
2025-04-24 16:00:00+00:00,-2020.7877781500645
2025-04-24 17:00:00+00:00,-2027.5307878370368
2025-04-24 18:00:00+00:00,-2014.7134928001826
2025-04-24 19:00:00+00:00,-2016.5124909570363
2025-04-25 13:00:00+00:00,-2059.3421425585107
2025-04-25 14:00:00+00:00,-2028.679225778186
2025-04-25 15:00:00+00:00,-2030.6871711287408
2025-04-25 16:00:00+00:00,-2017.068860943612
2025-04-25 17:00:00+00:00,-2042.2550599023432
2025-04-25 18:00:00+00:00,-2032.3102523549906
2025-04-25 19:00:00+00:00,-2023.5857817005044
2025-04-28 13:00:00+00:00,-1962.102713072004
2025-04-28 14:00:00+00:00,-1961.1958167193388
2025-04-28 15:00:00+00:00,-2002.0381154868037
2025-04-28 16:00:00+00:00,-2054.0219303452054
2025-04-28 17:00:00+00:00,-2014.8620529453235
2025-04-28 18:00:00+00:00,-2005.9909712000663
2025-04-28 19:00:00+00:00,-2002.751778667684
2025-04-29 13:00:00+00:00,-1963.1759870851233
2025-04-29 14:00:00+00:00,-1882.9957094612491
2025-04-29 15:00:00+00:00,-1892.687981083602
2025-04-29 16:00:00+00:00,-1892.5329813965755
2025-04-29 17:00:00+00:00,-1884.7839372569822
2025-04-29 19:00:00+00:00,-1888.3332039542227
2025-04-30 13:00:00+00:00,-1580.2916202333224
2025-04-30 14:00:00+00:00,-1608.1502123419689
2025-04-30 15:00:00+00:00,-1610.5687415770337
2025-04-30 16:00:00+00:00,-1551.054034701836
2025-04-30 17:00:00+00:00,-1539.3259464461576
2025-04-30 18:00:00+00:00,-1559.0609924928885
2025-05-01 13:00:00+00:00,-1359.4103486061267
2025-05-01 14:00:00+00:00,-1371.1042905017775
2025-05-01 15:00:00+00:00,-1371.1042905017775
2025-05-01 16:00:00+00:00,-1371.1042905017775
2025-05-01 17:00:00+00:00,-1371.1042905017775
2025-05-01 18:00:00+00:00,-1371.1042905017775
2025-05-01 19:00:00+00:00,-1371.1042905017775
2025-05-02 13:00:00+00:00,-1371.1042905017775
2025-05-02 14:00:00+00:00,-1371.1042905017775
2025-05-02 15:00:00+00:00,-1371.1042905017775
2025-05-02 16:00:00+00:00,-1371.1042905017775
2025-05-02 17:00:00+00:00,-1371.1042905017775
2025-05-02 18:00:00+00:00,-1371.1042905017775
2025-05-02 19:00:00+00:00,-1371.1042905017775
2025-05-05 13:00:00+00:00,-1371.1042905017775
2025-05-05 14:00:00+00:00,-1371.1042905017775
2025-05-05 15:00:00+00:00,-1371.1042905017775
2025-05-05 16:00:00+00:00,-1371.1042905017775
2025-05-05 17:00:00+00:00,-1371.1042905017775
2025-05-05 18:00:00+00:00,-1371.1042905017775
2025-05-05 19:00:00+00:00,-1371.1042905017775
2025-05-06 13:00:00+00:00,-1371.1042905017775
2025-05-06 14:00:00+00:00,-1371.1042905017775
2025-05-06 15:00:00+00:00,-1371.1042905017775
2025-05-06 16:00:00+00:00,-1371.1042905017775
2025-05-06 17:00:00+00:00,-1371.1042905017775
2025-05-06 18:00:00+00:00,-1371.1042905017775
2025-05-06 19:00:00+00:00,-1371.1042905017775
2025-05-07 13:00:00+00:00,-1371.1042905017775
2025-05-07 15:00:00+00:00,-1371.1042905017775
2025-05-07 17:00:00+00:00,-1371.1042905017775
2025-05-07 18:00:00+00:00,-1371.1042905017775
2025-05-07 19:00:00+00:00,-1371.1042905017775
2025-05-08 13:00:00+00:00,-1371.1042905017775
2025-05-08 14:00:00+00:00,-1371.1042905017775
2025-05-08 15:00:00+00:00,-1371.1042905017775
2025-05-08 16:00:00+00:00,-1371.1042905017775
2025-05-08 17:00:00+00:00,-1371.1042905017775
2025-05-08 18:00:00+00:00,-1371.1042905017775
2025-05-08 19:00:00+00:00,-1371.1042905017775
2025-05-09 13:00:00+00:00,-1371.1042905017775
2025-05-09 14:00:00+00:00,-1371.1042905017775
2025-05-09 15:00:00+00:00,-1371.1042905017775
2025-05-09 16:00:00+00:00,-1371.1042905017775
2025-05-09 17:00:00+00:00,-1371.1042905017775
2025-05-09 18:00:00+00:00,-1371.1042905017775
2025-05-09 19:00:00+00:00,-1371.1042905017775
2025-05-12 13:00:00+00:00,-1371.1042905017775
2025-05-12 14:00:00+00:00,-1371.1042905017775
2025-05-12 15:00:00+00:00,-1371.1042905017775
2025-05-12 16:00:00+00:00,-1371.1042905017775
2025-05-12 17:00:00+00:00,-1371.1042905017775
2025-05-12 18:00:00+00:00,-1371.1042905017775
2025-05-12 19:00:00+00:00,-1371.1042905017775
2025-05-13 13:00:00+00:00,-1371.1042905017775
2025-05-13 14:00:00+00:00,-1371.1042905017775
2025-05-13 15:00:00+00:00,-1371.1042905017775
2025-05-13 17:00:00+00:00,-1371.1042905017775
2025-05-13 18:00:00+00:00,-1371.1042905017775
2025-05-13 19:00:00+00:00,-1371.1042905017775
2025-05-14 13:00:00+00:00,-1371.1042905017775
2025-05-14 14:00:00+00:00,-1371.1042905017775
2025-05-14 15:00:00+00:00,-1371.1042905017775
2025-05-14 16:00:00+00:00,-1371.1042905017775
2025-05-14 17:00:00+00:00,-1371.1042905017775
2025-05-14 18:00:00+00:00,-1371.1042905017775
2025-05-14 19:00:00+00:00,-1371.1042905017775
2025-05-15 13:00:00+00:00,-1371.1042905017775
2025-05-15 14:00:00+00:00,-1371.1042905017775
2025-05-15 15:00:00+00:00,-1371.1042905017775
2025-05-15 16:00:00+00:00,-1371.1042905017775
2025-05-15 17:00:00+00:00,-1371.1042905017775
2025-05-15 18:00:00+00:00,-1371.1042905017775
2025-05-15 19:00:00+00:00,-1371.1042905017775
2025-05-16 13:00:00+00:00,-1371.1042905017775
2025-05-16 14:00:00+00:00,-1371.1042905017775
2025-05-16 15:00:00+00:00,-1371.1042905017775
2025-05-16 16:00:00+00:00,-1371.1042905017775
2025-05-16 17:00:00+00:00,-1371.1042905017775
2025-05-16 18:00:00+00:00,-1371.1042905017775
2025-05-16 19:00:00+00:00,-1371.1042905017775
2025-05-19 13:00:00+00:00,-1371.1042905017775
2025-05-19 14:00:00+00:00,-1371.1042905017775
2025-05-19 15:00:00+00:00,-1371.1042905017775
2025-05-19 16:00:00+00:00,-1371.1042905017775
2025-05-19 17:00:00+00:00,-1371.1042905017775
2025-05-19 18:00:00+00:00,-1371.1042905017775
2025-05-19 19:00:00+00:00,-1371.1042905017775
2025-05-20 13:00:00+00:00,-1371.1042905017775
2025-05-20 14:00:00+00:00,-1371.1042905017775
2025-05-20 15:00:00+00:00,-1371.1042905017775
2025-05-20 16:00:00+00:00,-1371.1042905017775
2025-05-20 17:00:00+00:00,-1371.1042905017775
2025-05-20 18:00:00+00:00,-1371.1042905017775
2025-05-20 19:00:00+00:00,-1371.1042905017775
2025-05-21 13:00:00+00:00,-1371.1042905017775
2025-05-21 14:00:00+00:00,-1371.1042905017775
2025-05-21 15:00:00+00:00,-1371.1042905017775
2025-05-21 16:00:00+00:00,-1371.1042905017775
2025-05-21 17:00:00+00:00,-1371.1042905017775
2025-05-21 18:00:00+00:00,-1371.1042905017775
2025-05-21 19:00:00+00:00,-1371.1042905017775
2025-05-22 13:00:00+00:00,-1371.1042905017775
2025-05-22 14:00:00+00:00,-1371.1042905017775
2025-05-22 16:00:00+00:00,-1371.1042905017775
2025-05-22 17:00:00+00:00,-1371.1042905017775
2025-05-22 18:00:00+00:00,-1371.1042905017775
2025-05-22 19:00:00+00:00,-1371.1042905017775
2025-05-23 13:00:00+00:00,-1371.1042905017775
2025-05-23 14:00:00+00:00,-1371.1042905017775
2025-05-23 15:00:00+00:00,-1371.1042905017775
2025-05-23 16:00:00+00:00,-1371.1042905017775
2025-05-23 17:00:00+00:00,-1371.1042905017775
2025-05-23 18:00:00+00:00,-1371.1042905017775
2025-05-23 19:00:00+00:00,-1371.1042905017775
2025-05-27 13:00:00+00:00,-1371.1042905017775
2025-05-27 14:00:00+00:00,-1371.1042905017775
2025-05-27 15:00:00+00:00,-1371.1042905017775
2025-05-27 16:00:00+00:00,-1371.1042905017775
2025-05-27 17:00:00+00:00,-1371.1042905017775
2025-05-27 18:00:00+00:00,-1371.1042905017775
2025-05-27 19:00:00+00:00,-1371.1042905017775
2025-05-28 13:00:00+00:00,-1371.1042905017775
2025-05-28 14:00:00+00:00,-1371.1042905017775
2025-05-28 15:00:00+00:00,-1371.1042905017775
2025-05-28 16:00:00+00:00,-1371.1042905017775
2025-05-28 17:00:00+00:00,-1371.1042905017775
2025-05-28 18:00:00+00:00,-1371.1042905017775
2025-05-28 19:00:00+00:00,-1371.1042905017775
2025-05-29 13:00:00+00:00,-1371.1042905017775
2025-05-29 14:00:00+00:00,-1371.1042905017775
2025-05-29 15:00:00+00:00,-1371.1042905017775
2025-05-29 16:00:00+00:00,-1371.1042905017775
2025-05-29 17:00:00+00:00,-1371.1042905017775
2025-05-29 18:00:00+00:00,-1371.1042905017775
2025-05-29 19:00:00+00:00,-1371.1042905017775
2025-05-30 13:00:00+00:00,-1371.1042905017775
2025-05-30 14:00:00+00:00,-1371.1042905017775
2025-05-30 15:00:00+00:00,-1371.1042905017775
2025-05-30 16:00:00+00:00,-1371.1042905017775
2025-05-30 17:00:00+00:00,-1371.1042905017775
2025-05-30 18:00:00+00:00,-1371.1042905017775
2025-05-30 19:00:00+00:00,-1371.1042905017775
2025-06-02 13:00:00+00:00,-1371.1042905017775
2025-06-02 14:00:00+00:00,-1371.1042905017775
2025-06-02 15:00:00+00:00,-1371.1042905017775
2025-06-02 16:00:00+00:00,-1371.1042905017775
2025-06-02 17:00:00+00:00,-1371.1042905017775
2025-06-02 18:00:00+00:00,-1371.1042905017775
2025-06-02 19:00:00+00:00,-1371.1042905017775
2025-06-03 13:00:00+00:00,-1371.1042905017775
2025-06-03 14:00:00+00:00,-1371.1042905017775
2025-06-03 15:00:00+00:00,-1371.1042905017775
2025-06-03 16:00:00+00:00,-1371.1042905017775
2025-06-03 17:00:00+00:00,-1371.1042905017775
2025-06-03 18:00:00+00:00,-1371.1042905017775
2025-06-03 19:00:00+00:00,-1371.1042905017775
2025-06-04 13:00:00+00:00,-1371.1042905017775
2025-06-04 14:00:00+00:00,-1371.1042905017775
2025-06-04 15:00:00+00:00,-1371.1042905017775
2025-06-04 16:00:00+00:00,-1371.1042905017775
2025-06-04 17:00:00+00:00,-1371.1042905017775
2025-06-04 18:00:00+00:00,-1371.1042905017775
2025-06-04 19:00:00+00:00,-1371.1042905017775
2025-06-05 13:00:00+00:00,-1371.1042905017775
2025-06-05 14:00:00+00:00,-1371.1042905017775
2025-06-05 15:00:00+00:00,-1371.1042905017775
2025-06-05 16:00:00+00:00,-1371.1042905017775
2025-06-05 17:00:00+00:00,-1371.1042905017775
2025-06-05 18:00:00+00:00,-1371.1042905017775
2025-06-05 19:00:00+00:00,-1371.1042905017775
2025-06-06 13:00:00+00:00,-1371.1042905017775
2025-06-06 14:00:00+00:00,-1371.1042905017775
2025-06-06 15:00:00+00:00,-1371.1042905017775
2025-06-06 16:00:00+00:00,-1371.1042905017775
2025-06-06 17:00:00+00:00,-1371.1042905017775
2025-06-06 18:00:00+00:00,-1371.1042905017775
2025-06-06 19:00:00+00:00,-1371.1042905017775
2025-06-09 13:00:00+00:00,-1371.1042905017775
2025-06-09 14:00:00+00:00,-1371.1042905017775
2025-06-09 15:00:00+00:00,-1371.1042905017775
2025-06-09 16:00:00+00:00,-1371.1042905017775
2025-06-09 17:00:00+00:00,-1371.1042905017775
2025-06-09 18:00:00+00:00,-1371.1042905017775
2025-06-09 19:00:00+00:00,-1371.1042905017775
2025-06-10 13:00:00+00:00,-1371.1042905017775
2025-06-10 14:00:00+00:00,-1371.1042905017775
2025-06-10 15:00:00+00:00,-1371.1042905017775
2025-06-10 16:00:00+00:00,-1371.1042905017775
2025-06-10 17:00:00+00:00,-1371.1042905017775
2025-06-10 18:00:00+00:00,-1371.1042905017775
2025-06-10 19:00:00+00:00,-1371.1042905017775
2025-06-11 13:00:00+00:00,-1371.1042905017775
2025-06-11 14:00:00+00:00,-1371.1042905017775
2025-06-11 15:00:00+00:00,-1371.1042905017775
2025-06-11 16:00:00+00:00,-1371.1042905017775
2025-06-11 18:00:00+00:00,-1371.1042905017775
2025-06-11 19:00:00+00:00,-1371.1042905017775
2025-06-12 13:00:00+00:00,-1371.1042905017775
2025-06-12 14:00:00+00:00,-1371.1042905017775
2025-06-12 15:00:00+00:00,-1371.1042905017775
2025-06-12 17:00:00+00:00,-1371.1042905017775
2025-06-12 18:00:00+00:00,-1371.1042905017775
2025-06-12 19:00:00+00:00,-1371.1042905017775
2025-06-13 13:00:00+00:00,-1371.1042905017775
2025-06-13 14:00:00+00:00,-1371.1042905017775
2025-06-13 15:00:00+00:00,-1371.1042905017775
2025-06-13 16:00:00+00:00,-1371.1042905017775
2025-06-13 17:00:00+00:00,-1371.1042905017775
2025-06-13 18:00:00+00:00,-1371.1042905017775
2025-06-13 19:00:00+00:00,-1371.1042905017775
2025-06-16 13:00:00+00:00,-1371.1042905017775
2025-06-16 14:00:00+00:00,-1371.1042905017775
2025-06-16 15:00:00+00:00,-1371.1042905017775
2025-06-16 16:00:00+00:00,-1371.1042905017775
2025-06-16 17:00:00+00:00,-1371.1042905017775
2025-06-16 18:00:00+00:00,-1371.1042905017775
2025-06-16 19:00:00+00:00,-1371.1042905017775
2025-06-17 13:00:00+00:00,-1371.1042905017775
2025-06-17 14:00:00+00:00,-1371.1042905017775
2025-06-17 15:00:00+00:00,-1371.1042905017775
2025-06-17 16:00:00+00:00,-1371.1042905017775
2025-06-17 17:00:00+00:00,-1371.1042905017775
2025-06-17 18:00:00+00:00,-1371.1042905017775
2025-06-17 19:00:00+00:00,-1371.1042905017775
2025-06-18 13:00:00+00:00,-1371.1042905017775
2025-06-18 15:00:00+00:00,-1371.1042905017775
2025-06-18 17:00:00+00:00,-1371.1042905017775
2025-06-18 18:00:00+00:00,-1371.1042905017775
2025-06-18 19:00:00+00:00,-1371.1042905017775
2025-06-20 13:00:00+00:00,-1371.1042905017775
2025-06-20 14:00:00+00:00,-1371.1042905017775
2025-06-20 15:00:00+00:00,-1371.1042905017775
2025-06-20 16:00:00+00:00,-1371.1042905017775
2025-06-20 18:00:00+00:00,-1371.1042905017775
2025-06-20 19:00:00+00:00,-1371.1042905017775
2025-06-23 13:00:00+00:00,-1371.1042905017775
2025-06-23 14:00:00+00:00,-1371.1042905017775
2025-06-23 16:00:00+00:00,-1371.1042905017775
2025-06-23 17:00:00+00:00,-1371.1042905017775
2025-06-23 19:00:00+00:00,-1371.1042905017775
2025-06-24 13:00:00+00:00,-1371.1042905017775
2025-06-24 14:00:00+00:00,-1371.1042905017775
2025-06-25 13:00:00+00:00,-1371.1042905017775
2025-06-25 14:00:00+00:00,-1371.1042905017775
2025-06-25 15:00:00+00:00,-1371.1042905017775
2025-06-25 16:00:00+00:00,-1371.1042905017775
2025-06-25 17:00:00+00:00,-1371.1042905017775
2025-06-25 19:00:00+00:00,-1371.1042905017775
2025-06-26 13:00:00+00:00,-1371.1042905017775
2025-06-26 14:00:00+00:00,-1371.1042905017775
2025-06-26 19:00:00+00:00,-1371.1042905017775
2025-06-27 13:00:00+00:00,-1371.1042905017775
2025-06-27 14:00:00+00:00,-1371.1042905017775
2025-06-27 15:00:00+00:00,-1371.1042905017775
2025-06-27 16:00:00+00:00,-1371.1042905017775
2025-06-27 17:00:00+00:00,-1371.1042905017775
2025-06-27 18:00:00+00:00,-1371.1042905017775
2025-06-27 19:00:00+00:00,-1371.1042905017775
2025-06-30 13:00:00+00:00,-1371.1042905017775
2025-06-30 14:00:00+00:00,-1371.1042905017775
2025-06-30 15:00:00+00:00,-1371.1042905017775
2025-06-30 16:00:00+00:00,-1371.1042905017775
2025-06-30 17:00:00+00:00,-1371.1042905017775
2025-06-30 19:00:00+00:00,-1371.1042905017775
2025-07-01 13:00:00+00:00,-1371.1042905017775
2025-07-01 14:00:00+00:00,-1371.1042905017775
2025-07-01 15:00:00+00:00,-1371.1042905017775
2025-07-01 16:00:00+00:00,-1371.1042905017775
2025-07-01 17:00:00+00:00,-1371.1042905017775
2025-07-01 18:00:00+00:00,-1371.1042905017775
2025-07-01 19:00:00+00:00,-1371.1042905017775
2025-07-02 13:00:00+00:00,-1371.1042905017775
2025-07-02 14:00:00+00:00,-1492.3381512899493
2025-07-02 15:00:00+00:00,-1440.2156678485583
2025-07-02 16:00:00+00:00,-1430.8551046439327
2025-07-02 17:00:00+00:00,-1463.2497907579643
2025-07-02 18:00:00+00:00,-1437.529442522095
2025-07-02 19:00:00+00:00,-1460.051991649721
2025-07-03 13:00:00+00:00,-1440.1252637957093
2025-07-03 14:00:00+00:00,-1424.120171181489
2025-07-03 15:00:00+00:00,-1442.0883694334827
2025-07-07 13:00:00+00:00,-1385.9313511910277
2025-07-07 14:00:00+00:00,-1347.8961949694044
2025-07-07 15:00:00+00:00,-1307.489927956103
2025-07-07 16:00:00+00:00,-1314.1339680421268
2025-07-07 17:00:00+00:00,-1282.4319336147992
2025-07-07 18:00:00+00:00,-1277.068801809768
2025-07-07 19:00:00+00:00,-1253.755358641713
2025-07-08 13:00:00+00:00,-1408.3145746436385
2025-07-08 14:00:00+00:00,-1479.4321758296169
2025-07-08 15:00:00+00:00,-1507.3179740480764
2025-07-08 16:00:00+00:00,-1447.416006635005
2025-07-08 17:00:00+00:00,-1483.5419699938102
2025-07-08 18:00:00+00:00,-1510.321054159331
2025-07-08 19:00:00+00:00,-1484.3250378188663
2025-07-09 13:00:00+00:00,-1522.8512902870964
2025-07-09 14:00:00+00:00,-1452.9265473231164
2025-07-09 15:00:00+00:00,-1438.1001954817812
2025-07-09 16:00:00+00:00,-1462.2182781016134
2025-07-09 17:00:00+00:00,-1460.8452408043722
2025-07-09 18:00:00+00:00,-1480.3471960899017
2025-07-09 19:00:00+00:00,-1486.1121395630807
2025-07-10 13:00:00+00:00,-1631.2030896104748
2025-07-10 14:00:00+00:00,-1617.1964744375355
2025-07-10 15:00:00+00:00,-1576.6334294183812
2025-07-10 16:00:00+00:00,-1556.944294975954
2025-07-10 17:00:00+00:00,-1556.3995668787406
2025-07-10 18:00:00+00:00,-1525.59894700724
2025-07-10 19:00:00+00:00,-1502.9195165148565
2025-07-11 13:00:00+00:00,-1379.2254798808926
2025-07-11 14:00:00+00:00,-1339.6870901050784
2025-07-11 15:00:00+00:00,-1348.1188073298101
2025-07-11 16:00:00+00:00,-1371.364537546127
2025-07-11 17:00:00+00:00,-1365.480663767352
2025-07-11 18:00:00+00:00,-1378.1431410539265
2025-07-11 19:00:00+00:00,-1375.7046904686429
2025-07-14 13:00:00+00:00,-1232.499379701256
2025-07-14 14:00:00+00:00,-1255.0845059136432
2025-07-14 15:00:00+00:00,-1233.2225607899486
2025-07-14 16:00:00+00:00,-1238.8008144297992
2025-07-14 17:00:00+00:00,-1250.494596749467
2025-07-14 19:00:00+00:00,-1285.1361398139338
2025-07-15 13:00:00+00:00,-1370.2676549667578
2025-07-15 14:00:00+00:00,-1426.2779492423913
2025-07-15 15:00:00+00:00,-1387.9973359254654
2025-07-15 16:00:00+00:00,-1361.3641440788444
2025-07-15 17:00:00+00:00,-1325.775045133535
2025-07-15 19:00:00+00:00,-1292.52762166946
2025-07-16 13:00:00+00:00,-1298.746889187
2025-07-16 14:00:00+00:00,-1234.227558799795
2025-07-16 15:00:00+00:00,-1251.149382710804
2025-07-16 16:00:00+00:00,-1290.9739957908632
2025-07-16 17:00:00+00:00,-1311.6916176853065
2025-07-16 19:00:00+00:00,-1329.8437160982737
2025-07-17 13:00:00+00:00,-1358.9390657467768
2025-07-17 15:00:00+00:00,-1376.582896962259
2025-07-17 16:00:00+00:00,-1371.1538689470613
2025-07-17 17:00:00+00:00,-1400.4926562664298
2025-07-18 13:00:00+00:00,-1263.4436363056843
2025-07-18 17:00:00+00:00,-1223.0490692668986
2025-07-18 19:00:00+00:00,-1272.2401272792122
2025-07-21 13:00:00+00:00,-1269.2531383183184
2025-07-21 14:00:00+00:00,-1225.212968169611
2025-07-21 16:00:00+00:00,-1246.0883396731726
2025-07-21 19:00:00+00:00,-1208.1150146756586
2025-07-22 13:00:00+00:00,-1141.8498974753745
2025-07-22 14:00:00+00:00,-1121.2435049442443
2025-07-22 15:00:00+00:00,-1108.8258326879688
2025-07-22 18:00:00+00:00,-1149.7945302198862
2025-07-22 19:00:00+00:00,-1187.3557941850918
2025-07-23 13:00:00+00:00,-1224.0170506277743
2025-07-23 14:00:00+00:00,-1194.8343983569023
2025-07-23 15:00:00+00:00,-1287.4535153960971
2025-07-23 16:00:00+00:00,-1292.398502676536
2025-07-23 17:00:00+00:00,-1280.5931178354263
2025-07-23 18:00:00+00:00,-1273.418957545238
2025-07-23 19:00:00+00:00,-1277.7216953081552
2025-07-24 13:00:00+00:00,-1312.2575956322432
2025-07-24 14:00:00+00:00,-1269.3054966051402
2025-07-24 15:00:00+00:00,-1218.0603852688034
2025-07-24 16:00:00+00:00,-1206.3592660573327
2025-07-24 19:00:00+00:00,-1171.0384314738753
2025-07-25 13:00:00+00:00,-1014.4833646940335
2025-07-25 14:00:00+00:00,-1028.4446351330944
2025-07-25 15:00:00+00:00,-1059.4324341614954
2025-07-25 16:00:00+00:00,-1055.8592485384677
2025-07-25 17:00:00+00:00,-1056.276311057016
2025-07-25 18:00:00+00:00,-1068.5669104171045
2025-07-28 13:00:00+00:00,-1089.5947684276562
2025-07-28 14:00:00+00:00,-1078.8930745158875
2025-07-28 15:00:00+00:00,-1102.2953129388327
2025-07-28 16:00:00+00:00,-1028.9783460913113
2025-07-28 17:00:00+00:00,-1020.5580677662854
2025-07-28 18:00:00+00:00,-1018.9291206830552
2025-07-28 19:00:00+00:00,-1016.6282331529894
2025-07-29 13:00:00+00:00,-916.1795535772143
2025-07-29 14:00:00+00:00,-919.2826877884414
2025-07-29 15:00:00+00:00,-919.93168151529
2025-07-29 16:00:00+00:00,-933.467163270385
2025-07-29 17:00:00+00:00,-906.5739439037591
2025-07-29 18:00:00+00:00,-910.3775681025672
2025-07-29 19:00:00+00:00,-898.9217523526122
2025-07-30 13:00:00+00:00,-648.0451694206645
2025-07-30 14:00:00+00:00,-560.6483658789668
2025-07-30 15:00:00+00:00,-560.6483658789668
2025-07-30 16:00:00+00:00,-560.6483658789668
2025-07-30 17:00:00+00:00,-560.6483658789668
2025-07-30 18:00:00+00:00,-560.6483658789668
2025-07-30 19:00:00+00:00,-560.6483658789668
2025-07-31 13:00:00+00:00,-560.6483658789668
2025-07-31 16:00:00+00:00,-560.6483658789668
2025-07-31 17:00:00+00:00,-560.6483658789668
2025-07-31 18:00:00+00:00,-560.6483658789668
2025-07-31 19:00:00+00:00,-560.6483658789668
2025-08-01 13:00:00+00:00,-560.6483658789668
2025-08-01 14:00:00+00:00,-560.6483658789668
2025-08-01 15:00:00+00:00,-560.6483658789668
2025-08-01 16:00:00+00:00,-560.6483658789668
2025-08-01 17:00:00+00:00,-560.6483658789668
2025-08-04 13:00:00+00:00,-560.6483658789668
2025-08-04 14:00:00+00:00,-560.6483658789668
2025-08-04 15:00:00+00:00,-560.6483658789668
2025-08-04 17:00:00+00:00,-560.6483658789668
2025-08-04 18:00:00+00:00,-560.6483658789668
2025-08-04 19:00:00+00:00,-560.6483658789668
2025-08-05 13:00:00+00:00,-560.6483658789668
2025-08-05 14:00:00+00:00,-560.6483658789668
2025-08-05 16:00:00+00:00,-560.6483658789668
2025-08-05 17:00:00+00:00,-560.6483658789668
2025-08-05 19:00:00+00:00,-560.6483658789668
2025-08-06 13:00:00+00:00,-560.6483658789668
2025-08-06 15:00:00+00:00,-560.6483658789668
2025-08-06 19:00:00+00:00,-560.6483658789668
2025-08-07 13:00:00+00:00,-560.6483658789668
2025-08-07 14:00:00+00:00,-560.6483658789668
2025-08-07 15:00:00+00:00,-560.6483658789668
2025-08-07 16:00:00+00:00,-560.6483658789668
2025-08-07 17:00:00+00:00,-560.6483658789668
2025-08-07 18:00:00+00:00,-560.6483658789668
2025-08-07 19:00:00+00:00,-560.6483658789668
2025-08-08 13:00:00+00:00,-560.6483658789668
2025-08-08 14:00:00+00:00,-560.6483658789668
2025-08-08 16:00:00+00:00,-560.6483658789668
2025-08-08 17:00:00+00:00,-560.6483658789668
2025-08-08 18:00:00+00:00,-560.6483658789668
2025-08-08 19:00:00+00:00,-560.6483658789668
2025-08-11 13:00:00+00:00,-560.6483658789668
2025-08-11 14:00:00+00:00,-560.6483658789668
2025-08-11 15:00:00+00:00,-560.6483658789668
2025-08-11 18:00:00+00:00,-560.6483658789668
2025-08-11 19:00:00+00:00,-560.6483658789668
2025-08-12 13:00:00+00:00,-560.6483658789668
2025-08-12 14:00:00+00:00,-560.6483658789668
2025-08-12 15:00:00+00:00,-560.6483658789668
2025-08-12 16:00:00+00:00,-560.6483658789668
2025-08-12 17:00:00+00:00,-560.6483658789668
2025-08-12 18:00:00+00:00,-560.6483658789668
2025-08-13 13:00:00+00:00,-560.6483658789668
2025-08-13 14:00:00+00:00,-560.6483658789668
2025-08-13 15:00:00+00:00,-560.6483658789668
2025-08-13 16:00:00+00:00,-560.6483658789668
2025-08-13 18:00:00+00:00,-560.6483658789668
2025-08-13 19:00:00+00:00,-560.6483658789668
2025-08-14 13:00:00+00:00,-560.6483658789668
2025-08-14 14:00:00+00:00,-560.6483658789668
2025-08-14 15:00:00+00:00,-560.6483658789668
2025-08-14 16:00:00+00:00,-560.6483658789668
2025-08-14 18:00:00+00:00,-560.6483658789668
2025-08-15 13:00:00+00:00,-560.6483658789668
2025-08-15 14:00:00+00:00,-560.6483658789668
2025-08-15 16:00:00+00:00,-560.6483658789668
2025-08-15 17:00:00+00:00,-560.6483658789668
2025-08-15 18:00:00+00:00,-560.6483658789668
2025-08-18 13:00:00+00:00,-560.6483658789668
2025-08-18 14:00:00+00:00,-560.6483658789668
2025-08-18 15:00:00+00:00,-560.6483658789668
2025-08-18 16:00:00+00:00,-560.6483658789668
2025-08-18 18:00:00+00:00,-560.6483658789668
2025-08-18 19:00:00+00:00,-560.6483658789668
2025-08-19 13:00:00+00:00,-560.6483658789668
2025-08-19 14:00:00+00:00,-560.6483658789668
2025-08-19 15:00:00+00:00,-560.6483658789668
2025-08-19 17:00:00+00:00,-560.6483658789668
2025-08-19 18:00:00+00:00,-560.6483658789668
2025-08-19 19:00:00+00:00,-560.6483658789668
2025-08-20 13:00:00+00:00,-560.6483658789668
2025-08-20 15:00:00+00:00,-560.6483658789668
2025-08-20 16:00:00+00:00,-560.6483658789668
2025-08-20 17:00:00+00:00,-560.6483658789668
2025-08-21 13:00:00+00:00,-560.6483658789668
2025-08-21 14:00:00+00:00,-560.6483658789668
2025-08-21 18:00:00+00:00,-560.6483658789668
2025-08-21 19:00:00+00:00,-560.6483658789668
2025-08-22 13:00:00+00:00,-756.9203854677311
2025-08-22 14:00:00+00:00,-769.6920419795533
2025-08-22 15:00:00+00:00,-765.0709471899487
2025-08-22 16:00:00+00:00,-738.8285130852684
2025-08-22 18:00:00+00:00,-717.7745909148935
2025-08-22 19:00:00+00:00,-717.0285178421918
2025-08-25 13:00:00+00:00,-602.5733631181215
2025-08-25 14:00:00+00:00,-599.5654922714541
2025-08-25 15:00:00+00:00,-589.526083939072
2025-08-25 17:00:00+00:00,-556.810237263023
2025-08-26 13:00:00+00:00,-560.1010645648213
2025-08-26 14:00:00+00:00,-564.5232137550257
2025-08-26 18:00:00+00:00,-540.7526264267283
2025-08-26 19:00:00+00:00,-549.232052083436
2025-08-27 13:00:00+00:00,-541.8049219612433
2025-08-27 14:00:00+00:00,-542.9502166263414
2025-08-27 15:00:00+00:00,-553.2680727090875
2025-08-27 16:00:00+00:00,-545.3197720417883
2025-08-27 17:00:00+00:00,-511.3614403964657
2025-08-27 18:00:00+00:00,-533.047554485564
2025-08-27 19:00:00+00:00,-520.7452752481555
2025-08-28 14:00:00+00:00,-444.94122998010124
2025-08-28 18:00:00+00:00,-454.0430745461108
2025-08-28 19:00:00+00:00,-439.5951762513991
2025-08-29 15:00:00+00:00,-388.25318758988766
2025-08-29 16:00:00+00:00,-399.7692010472663
2025-08-29 19:00:00+00:00,-393.85505614153624
2025-09-02 13:00:00+00:00,-231.4114212442537
2025-09-02 14:00:00+00:00,-191.23469752262514
2025-09-02 15:00:00+00:00,-172.33353476682973
2025-09-02 18:00:00+00:00,-241.48885209494082
2025-09-02 19:00:00+00:00,-237.34334346479466
2025-09-03 13:00:00+00:00,-187.37223176821195
2025-09-03 15:00:00+00:00,-177.25569467520393
2025-09-03 16:00:00+00:00,-201.24015695573206
2025-09-03 17:00:00+00:00,-208.59021460358116
2025-09-04 13:00:00+00:00,-250.27226391905864
2025-09-04 14:00:00+00:00,-277.3918490316121
2025-09-04 18:00:00+00:00,-254.64624276443914
2025-09-05 13:00:00+00:00,-273.1649591989674
2025-09-05 14:00:00+00:00,-240.66661643106474
2025-09-05 15:00:00+00:00,-201.28067901260988
2025-09-05 16:00:00+00:00,-190.24380606838398
2025-09-05 17:00:00+00:00,-202.65235404605738
2025-09-05 18:00:00+00:00,-232.26171550158776
2025-09-08 13:00:00+00:00,-200.29103453027687
2025-09-08 14:00:00+00:00,-251.79353932219178
2025-09-08 15:00:00+00:00,-242.65364110391772
2025-09-08 18:00:00+00:00,-315.13821420318504
2025-09-08 19:00:00+00:00,-369.05192588477223
2025-09-09 13:00:00+00:00,-218.29384472435527
2025-09-09 14:00:00+00:00,-210.8345573341812
2025-09-09 15:00:00+00:00,-196.92012728489615
2025-09-09 17:00:00+00:00,-230.8784589302187
2025-09-09 18:00:00+00:00,-200.8332327883853
2025-09-09 19:00:00+00:00,-220.06005606358957
2025-09-10 13:00:00+00:00,-138.757110378147
2025-09-10 14:00:00+00:00,-123.17500127998582
2025-09-10 15:00:00+00:00,-118.87420769085708
2025-09-10 17:00:00+00:00,-94.36035078393506
2025-09-11 13:00:00+00:00,-254.4996341854703
2025-09-11 14:00:00+00:00,-273.1097630525127
2025-09-11 18:00:00+00:00,-250.2681803198376
2025-09-11 19:00:00+00:00,-254.27484717158194
2025-09-12 13:00:00+00:00,-192.78357379636282
2025-09-12 14:00:00+00:00,-194.4428423630098
2025-09-12 15:00:00+00:00,-210.020108666582
2025-09-12 16:00:00+00:00,-235.8239672673258
2025-09-12 17:00:00+00:00,-221.54829245061657
2025-09-12 18:00:00+00:00,-207.9639160702239
2025-09-12 19:00:00+00:00,-195.02561896427932
2025-09-15 13:00:00+00:00,-247.30953340768636
2025-09-15 14:00:00+00:00,-140.18411652574312
2025-09-15 17:00:00+00:00,-162.95125643730958
2025-09-15 18:00:00+00:00,-129.48933668855906
2025-09-15 19:00:00+00:00,-110.07532944856052
2025-09-16 13:00:00+00:00,-78.80257882424249
2025-09-16 18:00:00+00:00,-28.18462365964659
2025-09-17 13:00:00+00:00,-140.90916088580605
2025-09-17 16:00:00+00:00,-142.88556293470984
2025-09-17 17:00:00+00:00,-195.2228030667064
2025-09-17 18:00:00+00:00,-22.63599637526363
2025-09-17 19:00:00+00:00,-42.3999168518158
2025-09-18 13:00:00+00:00,-163.15785032465493
2025-09-18 14:00:00+00:00,-85.51361313359206
2025-09-18 16:00:00+00:00,-109.02683319596363
2025-09-18 18:00:00+00:00,-115.29758830625568
2025-09-19 13:00:00+00:00,-20.46810263305119
2025-09-19 15:00:00+00:00,31.809121098188854
2025-09-19 17:00:00+00:00,20.660664562670192
2025-09-19 19:00:00+00:00,-28.36642576522162
2025-09-22 13:00:00+00:00,50.27890499360636
2025-09-22 14:00:00+00:00,58.94964950241841
2025-09-22 15:00:00+00:00,31.07730060499545
2025-09-22 18:00:00+00:00,23.751753936459863
2025-09-22 19:00:00+00:00,36.68285439884768
2025-09-23 13:00:00+00:00,152.49290314532578
2025-09-23 14:00:00+00:00,179.24078311476143
2025-09-23 15:00:00+00:00,266.08090699915863
2025-09-23 19:00:00+00:00,285.3611735175168
2025-09-24 15:00:00+00:00,270.61648569895465
2025-09-24 17:00:00+00:00,311.8420779750671
2025-09-24 18:00:00+00:00,281.7413130032846
2025-09-24 19:00:00+00:00,292.9517408187497
2025-09-25 13:00:00+00:00,321.329535580928
2025-09-25 15:00:00+00:00,322.95531548635773
2025-09-25 17:00:00+00:00,395.01666194530856
2025-09-25 18:00:00+00:00,396.9407034754318
2025-09-26 13:00:00+00:00,444.0338084218461
2025-09-26 14:00:00+00:00,458.4673134294415
2025-09-26 17:00:00+00:00,414.61153825466465
2025-09-26 18:00:00+00:00,434.9854935195936
2025-09-26 19:00:00+00:00,476.5638025263386
2025-09-29 13:00:00+00:00,454.60765116910443
2025-09-29 14:00:00+00:00,395.53038817763553
2025-09-29 16:00:00+00:00,407.7477748111904
2025-09-29 17:00:00+00:00,404.61448930378884
2025-09-29 18:00:00+00:00,412.8131696474471
2025-09-29 19:00:00+00:00,429.84143655358963
2025-09-30 13:00:00+00:00,392.48939389353524
2025-09-30 14:00:00+00:00,386.77608245820295
2025-09-30 15:00:00+00:00,367.69759516764265
2025-09-30 16:00:00+00:00,379.55123749520067
2025-09-30 18:00:00+00:00,340.8618171243844
2025-09-30 19:00:00+00:00,346.4305622386011
2025-10-01 13:00:00+00:00,462.40237408738994
2025-10-01 14:00:00+00:00,421.6315422336222
2025-10-01 16:00:00+00:00,465.65806878556134
2025-10-01 19:00:00+00:00,470.42520199712544
2025-10-02 13:00:00+00:00,396.20219227007226
2025-10-02 14:00:00+00:00,374.70907110980573
2025-10-02 15:00:00+00:00,396.1021984718188
2025-10-02 16:00:00+00:00,429.5201691836613
2025-10-02 17:00:00+00:00,421.5436441598025
2025-10-02 18:00:00+00:00,445.1024546378729
2025-10-02 19:00:00+00:00,458.15896724578744
2025-10-03 13:00:00+00:00,427.9352914564615
2025-10-03 14:00:00+00:00,461.08460827506747
2025-10-03 15:00:00+00:00,445.3222535935
2025-10-03 16:00:00+00:00,419.50170414295354
2025-10-03 17:00:00+00:00,462.658923483528
2025-10-03 19:00:00+00:00,478.8453191603546
2025-10-06 13:00:00+00:00,559.3227654497871
2025-10-06 14:00:00+00:00,557.6069918837404
2025-10-06 15:00:00+00:00,569.235427728199
2025-10-06 16:00:00+00:00,541.0173004815354
2025-10-06 17:00:00+00:00,557.8483832852489
2025-10-06 18:00:00+00:00,582.3009768195053
2025-10-06 19:00:00+00:00,595.7212925349028
2025-10-07 13:00:00+00:00,645.112324162681
2025-10-07 14:00:00+00:00,643.9898945352095
2025-10-07 15:00:00+00:00,646.0246379084998
2025-10-07 16:00:00+00:00,640.0561652704959
2025-10-07 17:00:00+00:00,662.4174034704474
2025-10-07 18:00:00+00:00,686.9088449848531
2025-10-07 19:00:00+00:00,659.9503994886563
2025-10-08 13:00:00+00:00,722.547529196105
2025-10-08 14:00:00+00:00,732.5355898721302
2025-10-08 15:00:00+00:00,726.6838018821795
2025-10-08 18:00:00+00:00,717.9819732364494
2025-10-08 19:00:00+00:00,719.644303559344
2025-10-09 13:00:00+00:00,707.2960641195525
2025-10-09 14:00:00+00:00,709.090943994391
2025-10-09 15:00:00+00:00,716.3477759026136
2025-10-09 18:00:00+00:00,730.9269279213244
2025-10-10 13:00:00+00:00,730.9269279213244
2025-10-10 14:00:00+00:00,730.9269279213244
2025-10-10 15:00:00+00:00,730.9269279213244
2025-10-10 16:00:00+00:00,730.9269279213244
2025-10-10 18:00:00+00:00,730.9269279213244
2025-10-13 13:00:00+00:00,730.9269279213244
2025-10-13 14:00:00+00:00,730.9269279213244
2025-10-13 15:00:00+00:00,730.9269279213244
2025-10-13 16:00:00+00:00,730.9269279213244
2025-10-13 18:00:00+00:00,730.9269279213244
2025-10-13 19:00:00+00:00,730.9269279213244
2025-10-14 13:00:00+00:00,730.9269279213244
2025-10-14 14:00:00+00:00,730.9269279213244
2025-10-14 16:00:00+00:00,730.9269279213244
2025-10-14 17:00:00+00:00,730.9269279213244
2025-10-14 18:00:00+00:00,730.9269279213244
2025-10-14 19:00:00+00:00,730.9269279213244
2025-10-15 13:00:00+00:00,730.9269279213244
2025-10-15 14:00:00+00:00,730.9269279213244
2025-10-15 15:00:00+00:00,730.9269279213244
2025-10-15 18:00:00+00:00,730.9269279213244
2025-10-15 19:00:00+00:00,730.9269279213244
2025-10-16 13:00:00+00:00,730.9269279213244
2025-10-16 14:00:00+00:00,730.9269279213244
2025-10-16 15:00:00+00:00,730.9269279213244
2025-10-16 16:00:00+00:00,730.9269279213244
2025-10-16 17:00:00+00:00,730.9269279213244
2025-10-16 18:00:00+00:00,730.9269279213244
2025-10-16 19:00:00+00:00,730.9269279213244
2025-10-17 13:00:00+00:00,730.9269279213244
2025-10-17 14:00:00+00:00,730.9269279213244
2025-10-17 15:00:00+00:00,730.9269279213244
2025-10-17 17:00:00+00:00,730.9269279213244
2025-10-17 18:00:00+00:00,730.9269279213244
2025-10-20 13:00:00+00:00,730.9269279213244
2025-10-20 14:00:00+00:00,730.9269279213244
2025-10-20 17:00:00+00:00,730.9269279213244
2025-10-20 18:00:00+00:00,730.9269279213244
2025-10-21 13:00:00+00:00,730.9269279213244
2025-10-21 14:00:00+00:00,730.9269279213244
2025-10-21 16:00:00+00:00,730.9269279213244
2025-10-21 17:00:00+00:00,730.9269279213244
2025-10-21 18:00:00+00:00,730.9269279213244
2025-10-21 19:00:00+00:00,730.9269279213244
2025-10-22 13:00:00+00:00,730.9269279213244
2025-10-22 14:00:00+00:00,730.9269279213244
2025-10-22 16:00:00+00:00,730.9269279213244
2025-10-22 17:00:00+00:00,730.9269279213244
2025-10-22 18:00:00+00:00,730.9269279213244
2025-10-22 19:00:00+00:00,730.9269279213244
