Date,0
2024-01-02 14:00:00+00:00,0.0
2024-01-02 15:00:00+00:00,0.0
2024-01-02 16:00:00+00:00,0.0
2024-01-02 17:00:00+00:00,0.0
2024-01-02 18:00:00+00:00,0.0
2024-01-02 19:00:00+00:00,0.0
2024-01-02 20:00:00+00:00,0.0
2024-01-03 14:00:00+00:00,0.0
2024-01-03 15:00:00+00:00,0.0
2024-01-03 16:00:00+00:00,0.0
2024-01-03 17:00:00+00:00,0.0
2024-01-03 18:00:00+00:00,0.0
2024-01-03 19:00:00+00:00,0.0
2024-01-03 20:00:00+00:00,0.0
2024-01-04 14:00:00+00:00,0.0
2024-01-04 15:00:00+00:00,0.0
2024-01-04 16:00:00+00:00,0.0
2024-01-04 17:00:00+00:00,0.0
2024-01-04 18:00:00+00:00,0.0
2024-01-04 19:00:00+00:00,0.0
2024-01-04 20:00:00+00:00,0.0
2024-01-05 14:00:00+00:00,0.0
2024-01-05 15:00:00+00:00,0.0
2024-01-05 16:00:00+00:00,0.0
2024-01-05 17:00:00+00:00,0.0
2024-01-05 18:00:00+00:00,0.0
2024-01-05 19:00:00+00:00,0.0
2024-01-05 20:00:00+00:00,0.0
2024-01-08 14:00:00+00:00,0.0
2024-01-08 15:00:00+00:00,0.0
2024-01-08 16:00:00+00:00,0.0
2024-01-08 17:00:00+00:00,0.0
2024-01-08 18:00:00+00:00,0.0
2024-01-08 19:00:00+00:00,0.0
2024-01-08 20:00:00+00:00,0.0
2024-01-09 14:00:00+00:00,0.0
2024-01-09 15:00:00+00:00,0.0
2024-01-09 16:00:00+00:00,0.0
2024-01-09 17:00:00+00:00,0.0
2024-01-09 18:00:00+00:00,0.0
2024-01-09 19:00:00+00:00,0.0
2024-01-09 20:00:00+00:00,0.0
2024-01-10 14:00:00+00:00,0.0
2024-01-10 15:00:00+00:00,0.0
2024-01-10 16:00:00+00:00,0.0
2024-01-10 17:00:00+00:00,0.0
2024-01-10 18:00:00+00:00,0.0
2024-01-10 19:00:00+00:00,0.0
2024-01-10 20:00:00+00:00,0.0
2024-01-11 14:00:00+00:00,0.0
2024-01-11 15:00:00+00:00,0.0
2024-01-11 16:00:00+00:00,0.0
2024-01-11 17:00:00+00:00,0.0
2024-01-11 18:00:00+00:00,0.0
2024-01-11 19:00:00+00:00,0.0
2024-01-11 20:00:00+00:00,0.0
2024-01-12 14:00:00+00:00,0.0
2024-01-12 15:00:00+00:00,0.0
2024-01-12 16:00:00+00:00,0.0
2024-01-12 17:00:00+00:00,0.0
2024-01-12 18:00:00+00:00,0.0
2024-01-12 19:00:00+00:00,0.0
2024-01-12 20:00:00+00:00,0.0
2024-01-16 14:00:00+00:00,0.0
2024-01-16 15:00:00+00:00,0.0
2024-01-16 16:00:00+00:00,0.0
2024-01-16 17:00:00+00:00,0.0
2024-01-16 18:00:00+00:00,0.0
2024-01-16 19:00:00+00:00,0.0
2024-01-16 20:00:00+00:00,0.0
2024-01-17 14:00:00+00:00,0.0
2024-01-17 15:00:00+00:00,0.0
2024-01-17 16:00:00+00:00,0.0
2024-01-17 17:00:00+00:00,0.0
2024-01-17 18:00:00+00:00,0.0
2024-01-17 19:00:00+00:00,0.0
2024-01-17 20:00:00+00:00,0.0
2024-01-18 14:00:00+00:00,0.0
2024-01-18 15:00:00+00:00,0.0
2024-01-18 16:00:00+00:00,0.0
2024-01-18 17:00:00+00:00,0.0
2024-01-18 18:00:00+00:00,0.0
2024-01-18 19:00:00+00:00,0.0
2024-01-18 20:00:00+00:00,0.0
2024-01-19 14:00:00+00:00,0.0
2024-01-19 15:00:00+00:00,0.0
2024-01-19 16:00:00+00:00,0.0
2024-01-19 17:00:00+00:00,0.0
2024-01-19 18:00:00+00:00,0.0
2024-01-19 19:00:00+00:00,0.0
2024-01-19 20:00:00+00:00,0.0
2024-01-22 14:00:00+00:00,0.0
2024-01-22 15:00:00+00:00,0.0
2024-01-22 16:00:00+00:00,0.0
2024-01-22 17:00:00+00:00,0.0
2024-01-22 18:00:00+00:00,0.0
2024-01-22 19:00:00+00:00,0.0
2024-01-22 20:00:00+00:00,0.0
2024-01-23 14:00:00+00:00,0.0
2024-01-23 15:00:00+00:00,0.0
2024-01-23 16:00:00+00:00,0.0
2024-01-23 17:00:00+00:00,0.0
2024-01-23 18:00:00+00:00,0.0
2024-01-23 19:00:00+00:00,0.0
2024-01-23 20:00:00+00:00,0.0
2024-01-24 14:00:00+00:00,0.0
2024-01-24 15:00:00+00:00,0.0
2024-01-24 16:00:00+00:00,0.0
2024-01-24 17:00:00+00:00,0.0
2024-01-24 18:00:00+00:00,0.0
2024-01-24 19:00:00+00:00,0.0
2024-01-24 20:00:00+00:00,0.0
2024-01-25 14:00:00+00:00,0.0
2024-01-25 15:00:00+00:00,0.0
2024-01-25 16:00:00+00:00,0.0
2024-01-25 17:00:00+00:00,0.0
2024-01-25 18:00:00+00:00,0.0
2024-01-25 19:00:00+00:00,0.0
2024-01-25 20:00:00+00:00,0.0
2024-01-26 14:00:00+00:00,0.0
2024-01-26 15:00:00+00:00,0.0
2024-01-26 16:00:00+00:00,0.0
2024-01-26 17:00:00+00:00,0.0
2024-01-26 18:00:00+00:00,0.0
2024-01-26 19:00:00+00:00,0.0
2024-01-26 20:00:00+00:00,0.0
2024-01-29 14:00:00+00:00,0.0
2024-01-29 15:00:00+00:00,0.0
2024-01-29 16:00:00+00:00,0.0
2024-01-29 17:00:00+00:00,0.0
2024-01-29 18:00:00+00:00,0.0
2024-01-29 19:00:00+00:00,0.0
2024-01-29 20:00:00+00:00,0.0
2024-01-30 14:00:00+00:00,0.0
2024-01-30 15:00:00+00:00,0.0
2024-01-30 16:00:00+00:00,0.0
2024-01-30 17:00:00+00:00,0.0
2024-01-30 18:00:00+00:00,0.0
2024-01-30 19:00:00+00:00,0.0
2024-01-30 20:00:00+00:00,0.0
2024-01-31 14:00:00+00:00,0.0
2024-01-31 15:00:00+00:00,0.0
2024-01-31 16:00:00+00:00,0.0
2024-01-31 17:00:00+00:00,0.0
2024-01-31 18:00:00+00:00,0.0
2024-01-31 19:00:00+00:00,0.0
2024-01-31 20:00:00+00:00,0.0
2024-02-01 14:00:00+00:00,0.0
2024-02-01 15:00:00+00:00,0.0
2024-02-01 16:00:00+00:00,0.0
2024-02-01 17:00:00+00:00,0.0
2024-02-01 18:00:00+00:00,0.0
2024-02-01 19:00:00+00:00,0.0
2024-02-01 20:00:00+00:00,0.0
2024-02-02 14:00:00+00:00,0.0
2024-02-02 15:00:00+00:00,0.0
2024-02-02 16:00:00+00:00,0.0
2024-02-02 17:00:00+00:00,0.0
2024-02-02 18:00:00+00:00,0.0
2024-02-02 19:00:00+00:00,0.0
2024-02-02 20:00:00+00:00,0.0
2024-02-05 14:00:00+00:00,0.0
2024-02-05 15:00:00+00:00,0.0
2024-02-05 16:00:00+00:00,0.0
2024-02-05 17:00:00+00:00,0.0
2024-02-05 18:00:00+00:00,0.0
2024-02-05 19:00:00+00:00,0.0
2024-02-05 20:00:00+00:00,0.0
2024-02-06 14:00:00+00:00,0.0
2024-02-06 15:00:00+00:00,0.0
2024-02-06 16:00:00+00:00,0.0
2024-02-06 17:00:00+00:00,0.0
2024-02-06 18:00:00+00:00,0.0
2024-02-06 19:00:00+00:00,0.0
2024-02-06 20:00:00+00:00,0.0
2024-02-07 14:00:00+00:00,0.0
2024-02-07 15:00:00+00:00,0.0
2024-02-07 16:00:00+00:00,0.0
2024-02-07 17:00:00+00:00,0.0
2024-02-07 18:00:00+00:00,0.0
2024-02-07 19:00:00+00:00,0.0
2024-02-07 20:00:00+00:00,0.0
2024-02-08 14:00:00+00:00,0.0
2024-02-08 15:00:00+00:00,0.0
2024-02-08 16:00:00+00:00,0.0
2024-02-08 17:00:00+00:00,0.0
2024-02-08 18:00:00+00:00,0.0
2024-02-08 19:00:00+00:00,0.0
2024-02-08 20:00:00+00:00,0.0
2024-02-09 14:00:00+00:00,0.0
2024-02-09 15:00:00+00:00,0.0
2024-02-09 16:00:00+00:00,0.0
2024-02-09 17:00:00+00:00,0.0
2024-02-09 18:00:00+00:00,0.0
2024-02-09 19:00:00+00:00,0.0
2024-02-09 20:00:00+00:00,0.0
2024-02-12 14:00:00+00:00,0.0
2024-02-12 15:00:00+00:00,0.0
2024-02-12 16:00:00+00:00,0.0
2024-02-12 17:00:00+00:00,0.0
2024-02-12 18:00:00+00:00,0.0
2024-02-12 19:00:00+00:00,0.0
2024-02-12 20:00:00+00:00,0.0
2024-02-13 14:00:00+00:00,0.0
2024-02-13 15:00:00+00:00,0.0
2024-02-13 16:00:00+00:00,0.0
2024-02-13 17:00:00+00:00,0.0
2024-02-13 18:00:00+00:00,0.0
2024-02-13 19:00:00+00:00,0.0
2024-02-13 20:00:00+00:00,0.0
2024-02-14 14:00:00+00:00,0.0
2024-02-14 15:00:00+00:00,0.0
2024-02-14 16:00:00+00:00,0.0
2024-02-14 17:00:00+00:00,0.0
2024-02-14 18:00:00+00:00,0.0
2024-02-14 19:00:00+00:00,0.0
2024-02-14 20:00:00+00:00,0.0
2024-02-15 14:00:00+00:00,0.0
2024-02-15 15:00:00+00:00,0.0
2024-02-15 16:00:00+00:00,0.0
2024-02-15 17:00:00+00:00,0.0
2024-02-15 18:00:00+00:00,0.0
2024-02-15 19:00:00+00:00,0.0
2024-02-15 20:00:00+00:00,0.0
2024-02-16 14:00:00+00:00,0.0
2024-02-16 15:00:00+00:00,0.0
2024-02-16 16:00:00+00:00,0.0
2024-02-16 17:00:00+00:00,0.0
2024-02-16 18:00:00+00:00,0.0
2024-02-16 19:00:00+00:00,0.0
2024-02-16 20:00:00+00:00,0.0
2024-02-20 14:00:00+00:00,0.0
2024-02-20 15:00:00+00:00,0.0
2024-02-20 16:00:00+00:00,0.0
2024-02-20 17:00:00+00:00,0.0
2024-02-20 18:00:00+00:00,0.0
2024-02-20 19:00:00+00:00,0.0
2024-02-20 20:00:00+00:00,0.0
2024-02-21 14:00:00+00:00,0.0
2024-02-21 15:00:00+00:00,0.0
2024-02-21 16:00:00+00:00,0.0
2024-02-21 17:00:00+00:00,0.0
2024-02-21 18:00:00+00:00,0.0
2024-02-21 19:00:00+00:00,0.0
2024-02-21 20:00:00+00:00,0.0
2024-02-22 14:00:00+00:00,0.0
2024-02-22 15:00:00+00:00,0.0
2024-02-22 16:00:00+00:00,0.0
2024-02-22 17:00:00+00:00,0.0
2024-02-22 18:00:00+00:00,0.0
2024-02-22 19:00:00+00:00,0.0
2024-02-22 20:00:00+00:00,0.0
2024-02-23 14:00:00+00:00,0.0
2024-02-23 15:00:00+00:00,0.0
2024-02-23 16:00:00+00:00,0.0
2024-02-23 17:00:00+00:00,0.0
2024-02-23 18:00:00+00:00,0.0
2024-02-23 19:00:00+00:00,0.0
2024-02-23 20:00:00+00:00,0.0
2024-02-26 14:00:00+00:00,0.0
2024-02-26 15:00:00+00:00,0.0
2024-02-26 16:00:00+00:00,0.0
2024-02-26 17:00:00+00:00,0.0
2024-02-26 18:00:00+00:00,0.0
2024-02-26 19:00:00+00:00,0.0
2024-02-26 20:00:00+00:00,0.0
2024-02-27 14:00:00+00:00,0.0
2024-02-27 15:00:00+00:00,0.0
2024-02-27 16:00:00+00:00,0.0
2024-02-27 17:00:00+00:00,0.0
2024-02-27 18:00:00+00:00,0.0
2024-02-27 19:00:00+00:00,0.0
2024-02-27 20:00:00+00:00,0.0
2024-02-28 14:00:00+00:00,0.0
2024-02-28 15:00:00+00:00,0.0
2024-02-28 16:00:00+00:00,0.0
2024-02-28 17:00:00+00:00,0.0
2024-02-28 18:00:00+00:00,0.0
2024-02-28 19:00:00+00:00,0.0
2024-02-28 20:00:00+00:00,0.0
2024-02-29 14:00:00+00:00,0.0
2024-02-29 15:00:00+00:00,0.0
2024-02-29 16:00:00+00:00,0.0
2024-02-29 17:00:00+00:00,0.0
2024-02-29 18:00:00+00:00,0.0
2024-02-29 19:00:00+00:00,0.0
2024-02-29 20:00:00+00:00,0.0
2024-03-01 14:00:00+00:00,0.0
2024-03-01 15:00:00+00:00,0.0
2024-03-01 16:00:00+00:00,0.0
2024-03-01 17:00:00+00:00,0.0
2024-03-01 18:00:00+00:00,0.0
2024-03-01 19:00:00+00:00,0.0
2024-03-01 20:00:00+00:00,0.0
2024-03-04 14:00:00+00:00,0.0
2024-03-04 15:00:00+00:00,0.0
2024-03-04 16:00:00+00:00,0.0
2024-03-04 17:00:00+00:00,0.0
2024-03-04 18:00:00+00:00,0.0
2024-03-04 19:00:00+00:00,0.0
2024-03-04 20:00:00+00:00,0.0
2024-03-05 14:00:00+00:00,0.0
2024-03-05 15:00:00+00:00,0.0
2024-03-05 16:00:00+00:00,0.0
2024-03-05 17:00:00+00:00,0.0
2024-03-05 18:00:00+00:00,0.0
2024-03-05 19:00:00+00:00,0.0
2024-03-05 20:00:00+00:00,0.0
2024-03-06 14:00:00+00:00,0.0
2024-03-06 15:00:00+00:00,0.0
2024-03-06 16:00:00+00:00,0.0
2024-03-06 17:00:00+00:00,0.0
2024-03-06 18:00:00+00:00,0.0
2024-03-06 19:00:00+00:00,0.0
2024-03-06 20:00:00+00:00,0.0
2024-03-07 14:00:00+00:00,0.0
2024-03-07 15:00:00+00:00,0.0
2024-03-07 16:00:00+00:00,0.0
2024-03-07 17:00:00+00:00,0.0
2024-03-07 18:00:00+00:00,0.0
2024-03-07 19:00:00+00:00,0.0
2024-03-07 20:00:00+00:00,0.0
2024-03-08 14:00:00+00:00,0.0
2024-03-08 15:00:00+00:00,0.0
2024-03-08 16:00:00+00:00,0.0
2024-03-08 17:00:00+00:00,0.0
2024-03-08 18:00:00+00:00,0.0
2024-03-08 19:00:00+00:00,0.0
2024-03-08 20:00:00+00:00,0.0
2024-03-11 13:00:00+00:00,0.0
2024-03-11 14:00:00+00:00,0.0
2024-03-11 15:00:00+00:00,0.0
2024-03-11 16:00:00+00:00,0.0
2024-03-11 17:00:00+00:00,0.0
2024-03-11 18:00:00+00:00,0.0
2024-03-11 19:00:00+00:00,0.0
2024-03-12 13:00:00+00:00,0.0
2024-03-12 14:00:00+00:00,0.0
2024-03-12 15:00:00+00:00,0.0
2024-03-12 16:00:00+00:00,0.0
2024-03-12 17:00:00+00:00,0.0
2024-03-12 18:00:00+00:00,0.0
2024-03-12 19:00:00+00:00,0.0
2024-03-13 13:00:00+00:00,0.0
2024-03-13 14:00:00+00:00,0.0
2024-03-13 15:00:00+00:00,0.0
2024-03-13 16:00:00+00:00,0.0
2024-03-13 17:00:00+00:00,0.0
2024-03-13 18:00:00+00:00,0.0
2024-03-13 19:00:00+00:00,0.0
2024-03-14 13:00:00+00:00,0.0
2024-03-14 14:00:00+00:00,0.0
2024-03-14 15:00:00+00:00,0.0
2024-03-14 16:00:00+00:00,0.0
2024-03-14 17:00:00+00:00,0.0
2024-03-14 18:00:00+00:00,0.0
2024-03-14 19:00:00+00:00,0.0
2024-03-15 13:00:00+00:00,0.0
2024-03-15 14:00:00+00:00,0.0
2024-03-15 15:00:00+00:00,0.0
2024-03-15 16:00:00+00:00,0.0
2024-03-15 17:00:00+00:00,0.0
2024-03-15 18:00:00+00:00,0.0
2024-03-15 19:00:00+00:00,0.0
2024-03-18 13:00:00+00:00,0.0
2024-03-18 14:00:00+00:00,0.0
2024-03-18 15:00:00+00:00,0.0
2024-03-18 16:00:00+00:00,0.0
2024-03-18 17:00:00+00:00,0.0
2024-03-18 18:00:00+00:00,0.0
2024-03-18 19:00:00+00:00,0.0
2024-03-19 13:00:00+00:00,0.0
2024-03-19 14:00:00+00:00,0.0
2024-03-19 15:00:00+00:00,0.0
2024-03-19 16:00:00+00:00,0.0
2024-03-19 17:00:00+00:00,0.0
2024-03-19 18:00:00+00:00,0.0
2024-03-19 19:00:00+00:00,0.0
2024-03-20 13:00:00+00:00,0.0
2024-03-20 14:00:00+00:00,0.0
2024-03-20 15:00:00+00:00,0.0
2024-03-20 16:00:00+00:00,0.0
2024-03-20 17:00:00+00:00,0.0
2024-03-20 18:00:00+00:00,0.0
2024-03-20 19:00:00+00:00,0.0
2024-03-21 13:00:00+00:00,0.0
2024-03-21 14:00:00+00:00,0.0
2024-03-21 15:00:00+00:00,0.0
2024-03-21 16:00:00+00:00,0.0
2024-03-21 17:00:00+00:00,0.0
2024-03-21 18:00:00+00:00,0.0
2024-03-21 19:00:00+00:00,0.0
2024-03-22 13:00:00+00:00,0.0
2024-03-22 14:00:00+00:00,0.0
2024-03-22 15:00:00+00:00,0.0
2024-03-22 16:00:00+00:00,0.0
2024-03-22 17:00:00+00:00,0.0
2024-03-22 18:00:00+00:00,0.0
2024-03-22 19:00:00+00:00,0.0
2024-03-25 13:00:00+00:00,0.0
2024-03-25 14:00:00+00:00,0.0
2024-03-25 15:00:00+00:00,0.0
2024-03-25 16:00:00+00:00,0.0
2024-03-25 17:00:00+00:00,0.0
2024-03-25 18:00:00+00:00,0.0
2024-03-25 19:00:00+00:00,0.0
2024-03-26 13:00:00+00:00,0.0
2024-03-26 14:00:00+00:00,0.0
2024-03-26 15:00:00+00:00,0.0
2024-03-26 16:00:00+00:00,0.0
2024-03-26 17:00:00+00:00,0.0
2024-03-26 18:00:00+00:00,0.0
2024-03-26 19:00:00+00:00,0.0
2024-03-27 13:00:00+00:00,0.0
2024-03-27 14:00:00+00:00,0.0
2024-03-27 15:00:00+00:00,0.0
2024-03-27 16:00:00+00:00,0.0
2024-03-27 17:00:00+00:00,0.0
2024-03-27 18:00:00+00:00,0.0
2024-03-27 19:00:00+00:00,0.0
2024-03-28 13:00:00+00:00,0.0
2024-03-28 14:00:00+00:00,0.0
2024-03-28 15:00:00+00:00,0.0
2024-03-28 16:00:00+00:00,0.0
2024-03-28 17:00:00+00:00,0.0
2024-03-28 18:00:00+00:00,0.0
2024-03-28 19:00:00+00:00,0.0
2024-04-01 13:00:00+00:00,0.0
2024-04-01 14:00:00+00:00,0.0
2024-04-01 15:00:00+00:00,0.0
2024-04-01 16:00:00+00:00,0.0
2024-04-01 17:00:00+00:00,0.0
2024-04-01 18:00:00+00:00,0.0
2024-04-01 19:00:00+00:00,0.0
2024-04-02 13:00:00+00:00,0.0
2024-04-02 14:00:00+00:00,0.0
2024-04-02 15:00:00+00:00,0.0
2024-04-02 16:00:00+00:00,0.0
2024-04-02 17:00:00+00:00,0.0
2024-04-02 18:00:00+00:00,0.0
2024-04-02 19:00:00+00:00,0.0
2024-04-03 13:00:00+00:00,0.0
2024-04-03 14:00:00+00:00,0.0
2024-04-03 15:00:00+00:00,0.0
2024-04-03 16:00:00+00:00,0.0
2024-04-03 17:00:00+00:00,0.0
2024-04-03 18:00:00+00:00,0.0
2024-04-03 19:00:00+00:00,0.0
2024-04-04 13:00:00+00:00,0.0
2024-04-04 14:00:00+00:00,0.0
2024-04-04 15:00:00+00:00,0.0
2024-04-04 16:00:00+00:00,0.0
2024-04-04 17:00:00+00:00,0.0
2024-04-04 18:00:00+00:00,0.0
2024-04-04 19:00:00+00:00,0.0
2024-04-05 13:00:00+00:00,0.0
2024-04-05 14:00:00+00:00,0.0
2024-04-05 15:00:00+00:00,0.0
2024-04-05 16:00:00+00:00,0.0
2024-04-05 17:00:00+00:00,0.0
2024-04-05 18:00:00+00:00,0.0
2024-04-05 19:00:00+00:00,0.0
2024-04-08 13:00:00+00:00,0.0
2024-04-08 14:00:00+00:00,0.0
2024-04-08 15:00:00+00:00,0.0
2024-04-08 16:00:00+00:00,0.0
2024-04-08 17:00:00+00:00,0.0
2024-04-08 18:00:00+00:00,0.0
2024-04-08 19:00:00+00:00,0.0
2024-04-09 13:00:00+00:00,0.0
2024-04-09 14:00:00+00:00,0.0
2024-04-09 15:00:00+00:00,0.0
2024-04-09 16:00:00+00:00,0.0
2024-04-09 17:00:00+00:00,0.0
2024-04-09 18:00:00+00:00,0.0
2024-04-09 19:00:00+00:00,0.0
2024-04-10 13:00:00+00:00,0.0
2024-04-10 14:00:00+00:00,0.0
2024-04-10 15:00:00+00:00,0.0
2024-04-10 16:00:00+00:00,0.0
2024-04-10 17:00:00+00:00,0.0
2024-04-10 18:00:00+00:00,0.0
2024-04-10 19:00:00+00:00,0.0
2024-04-11 13:00:00+00:00,0.0
2024-04-11 14:00:00+00:00,0.0
2024-04-11 15:00:00+00:00,0.0
2024-04-11 16:00:00+00:00,0.0
2024-04-11 17:00:00+00:00,0.0
2024-04-11 18:00:00+00:00,0.0
2024-04-11 19:00:00+00:00,0.0
2024-04-12 13:00:00+00:00,0.0
2024-04-12 14:00:00+00:00,0.0
2024-04-12 15:00:00+00:00,0.0
2024-04-12 16:00:00+00:00,0.0
2024-04-12 17:00:00+00:00,0.0
2024-04-12 18:00:00+00:00,0.0
2024-04-12 19:00:00+00:00,0.0
2024-04-15 13:00:00+00:00,0.0
2024-04-15 14:00:00+00:00,0.0
2024-04-15 15:00:00+00:00,0.0
2024-04-15 16:00:00+00:00,0.0
2024-04-15 17:00:00+00:00,0.0
2024-04-15 18:00:00+00:00,0.0
2024-04-15 19:00:00+00:00,0.0
2024-04-16 13:00:00+00:00,0.0
2024-04-16 14:00:00+00:00,0.0
2024-04-16 15:00:00+00:00,0.0
2024-04-16 16:00:00+00:00,0.0
2024-04-16 17:00:00+00:00,0.0
2024-04-16 18:00:00+00:00,0.0
2024-04-16 19:00:00+00:00,0.0
2024-04-17 13:00:00+00:00,0.0
2024-04-17 14:00:00+00:00,0.0
2024-04-17 15:00:00+00:00,0.0
2024-04-17 16:00:00+00:00,0.0
2024-04-17 17:00:00+00:00,0.0
2024-04-17 18:00:00+00:00,0.0
2024-04-17 19:00:00+00:00,0.0
2024-04-18 13:00:00+00:00,0.0
2024-04-18 14:00:00+00:00,0.0
2024-04-18 15:00:00+00:00,0.0
2024-04-18 16:00:00+00:00,0.0
2024-04-18 17:00:00+00:00,0.0
2024-04-18 18:00:00+00:00,0.0
2024-04-18 19:00:00+00:00,0.0
2024-04-19 13:00:00+00:00,0.0
2024-04-19 14:00:00+00:00,0.0
2024-04-19 15:00:00+00:00,0.0
2024-04-19 16:00:00+00:00,0.0
2024-04-19 17:00:00+00:00,0.0
2024-04-19 18:00:00+00:00,0.0
2024-04-19 19:00:00+00:00,0.0
2024-04-22 13:00:00+00:00,0.0
2024-04-22 14:00:00+00:00,0.0
2024-04-22 15:00:00+00:00,0.0
2024-04-22 16:00:00+00:00,0.0
2024-04-22 17:00:00+00:00,0.0
2024-04-22 18:00:00+00:00,0.0
2024-04-22 19:00:00+00:00,0.0
2024-04-23 13:00:00+00:00,0.0
2024-04-23 14:00:00+00:00,0.0
2024-04-23 15:00:00+00:00,0.0
2024-04-23 16:00:00+00:00,0.0
2024-04-23 17:00:00+00:00,0.0
2024-04-23 18:00:00+00:00,0.0
2024-04-23 19:00:00+00:00,0.0
2024-04-24 13:00:00+00:00,0.0
2024-04-24 14:00:00+00:00,0.0
2024-04-24 15:00:00+00:00,0.0
2024-04-24 16:00:00+00:00,0.0
2024-04-24 17:00:00+00:00,0.0
2024-04-24 18:00:00+00:00,0.0
2024-04-24 19:00:00+00:00,0.0
2024-04-25 13:00:00+00:00,0.0
2024-04-25 14:00:00+00:00,0.0
2024-04-25 15:00:00+00:00,0.0
2024-04-25 16:00:00+00:00,0.0
2024-04-25 17:00:00+00:00,0.0
2024-04-25 18:00:00+00:00,0.0
2024-04-25 19:00:00+00:00,0.0
2024-04-26 13:00:00+00:00,0.0
2024-04-26 14:00:00+00:00,0.0
2024-04-26 15:00:00+00:00,0.0
2024-04-26 16:00:00+00:00,0.0
2024-04-26 17:00:00+00:00,0.0
2024-04-26 18:00:00+00:00,0.0
2024-04-26 19:00:00+00:00,0.0
2024-04-29 13:00:00+00:00,0.0
2024-04-29 14:00:00+00:00,0.0
2024-04-29 15:00:00+00:00,0.0
2024-04-29 16:00:00+00:00,0.0
2024-04-29 17:00:00+00:00,0.0
2024-04-29 18:00:00+00:00,0.0
2024-04-29 19:00:00+00:00,0.0
2024-04-30 13:00:00+00:00,0.0
2024-04-30 14:00:00+00:00,0.0
2024-04-30 15:00:00+00:00,0.0
2024-04-30 16:00:00+00:00,0.0
2024-04-30 17:00:00+00:00,0.0
2024-04-30 18:00:00+00:00,0.0
2024-04-30 19:00:00+00:00,0.0
2024-05-01 13:00:00+00:00,0.0
2024-05-01 14:00:00+00:00,0.0
2024-05-01 15:00:00+00:00,0.0
2024-05-01 16:00:00+00:00,0.0
2024-05-01 17:00:00+00:00,0.0
2024-05-01 18:00:00+00:00,0.0
2024-05-01 19:00:00+00:00,0.0
2024-05-02 13:00:00+00:00,0.0
2024-05-02 14:00:00+00:00,0.0
2024-05-02 15:00:00+00:00,0.0
2024-05-02 16:00:00+00:00,0.0
2024-05-02 17:00:00+00:00,0.0
2024-05-02 18:00:00+00:00,0.0
2024-05-02 19:00:00+00:00,0.0
2024-05-03 13:00:00+00:00,0.0
2024-05-03 14:00:00+00:00,0.0
2024-05-03 15:00:00+00:00,0.0
2024-05-03 16:00:00+00:00,0.0
2024-05-03 17:00:00+00:00,0.0
2024-05-03 18:00:00+00:00,0.0
2024-05-03 19:00:00+00:00,0.0
2024-05-06 13:00:00+00:00,0.0
2024-05-06 14:00:00+00:00,0.0
2024-05-06 15:00:00+00:00,0.0
2024-05-06 16:00:00+00:00,0.0
2024-05-06 17:00:00+00:00,0.0
2024-05-06 18:00:00+00:00,0.0
2024-05-06 19:00:00+00:00,0.0
2024-05-07 13:00:00+00:00,0.0
2024-05-07 14:00:00+00:00,0.0
2024-05-07 15:00:00+00:00,0.0
2024-05-07 16:00:00+00:00,0.0
2024-05-07 17:00:00+00:00,0.0
2024-05-07 18:00:00+00:00,0.0
2024-05-07 19:00:00+00:00,0.0
2024-05-08 13:00:00+00:00,0.0
2024-05-08 14:00:00+00:00,0.0
2024-05-08 15:00:00+00:00,0.0
2024-05-08 16:00:00+00:00,0.0
2024-05-08 17:00:00+00:00,0.0
2024-05-08 18:00:00+00:00,0.0
2024-05-08 19:00:00+00:00,0.0
2024-05-09 13:00:00+00:00,0.0
2024-05-09 14:00:00+00:00,0.0
2024-05-09 15:00:00+00:00,0.0
2024-05-09 16:00:00+00:00,0.0
2024-05-09 17:00:00+00:00,0.0
2024-05-09 18:00:00+00:00,0.0
2024-05-09 19:00:00+00:00,0.0
2024-05-10 13:00:00+00:00,0.0
2024-05-10 14:00:00+00:00,0.0
2024-05-10 15:00:00+00:00,0.0
2024-05-10 16:00:00+00:00,0.0
2024-05-10 17:00:00+00:00,0.0
2024-05-10 18:00:00+00:00,0.0
2024-05-10 19:00:00+00:00,0.0
2024-05-13 13:00:00+00:00,0.0
2024-05-13 14:00:00+00:00,0.0
2024-05-13 15:00:00+00:00,0.0
2024-05-13 16:00:00+00:00,0.0
2024-05-13 17:00:00+00:00,0.0
2024-05-13 18:00:00+00:00,0.0
2024-05-13 19:00:00+00:00,0.0
2024-05-14 13:00:00+00:00,0.0
2024-05-14 14:00:00+00:00,0.0
2024-05-14 15:00:00+00:00,0.0
2024-05-14 16:00:00+00:00,0.0
2024-05-14 17:00:00+00:00,0.0
2024-05-14 18:00:00+00:00,0.0
2024-05-14 19:00:00+00:00,0.0
2024-05-15 13:00:00+00:00,0.0
2024-05-15 14:00:00+00:00,0.0
2024-05-15 15:00:00+00:00,0.0
2024-05-15 16:00:00+00:00,0.0
2024-05-15 17:00:00+00:00,0.0
2024-05-15 18:00:00+00:00,0.0
2024-05-15 19:00:00+00:00,0.0
2024-05-16 13:00:00+00:00,0.0
2024-05-16 14:00:00+00:00,0.0
2024-05-16 15:00:00+00:00,0.0
2024-05-16 16:00:00+00:00,0.0
2024-05-16 17:00:00+00:00,0.0
2024-05-16 18:00:00+00:00,0.0
2024-05-16 19:00:00+00:00,0.0
2024-05-17 13:00:00+00:00,0.0
2024-05-17 14:00:00+00:00,0.0
2024-05-17 15:00:00+00:00,0.0
2024-05-17 16:00:00+00:00,0.0
2024-05-17 17:00:00+00:00,0.0
2024-05-17 18:00:00+00:00,0.0
2024-05-17 19:00:00+00:00,0.0
2024-05-20 13:00:00+00:00,0.0
2024-05-20 14:00:00+00:00,0.0
2024-05-20 15:00:00+00:00,0.0
2024-05-20 16:00:00+00:00,0.0
2024-05-20 17:00:00+00:00,0.0
2024-05-20 18:00:00+00:00,0.0
2024-05-20 19:00:00+00:00,0.0
2024-05-21 13:00:00+00:00,0.0
2024-05-21 14:00:00+00:00,0.0
2024-05-21 15:00:00+00:00,0.0
2024-05-21 16:00:00+00:00,0.0
2024-05-21 17:00:00+00:00,0.0
2024-05-21 18:00:00+00:00,0.0
2024-05-21 19:00:00+00:00,0.0
2024-05-22 13:00:00+00:00,0.0
2024-05-22 14:00:00+00:00,0.0
2024-05-22 15:00:00+00:00,0.0
2024-05-22 16:00:00+00:00,0.0
2024-05-22 17:00:00+00:00,0.0
2024-05-22 18:00:00+00:00,0.0
2024-05-22 19:00:00+00:00,0.0
2024-05-23 13:00:00+00:00,0.0
2024-05-23 14:00:00+00:00,0.0
2024-05-23 15:00:00+00:00,0.0
2024-05-23 16:00:00+00:00,0.0
2024-05-23 17:00:00+00:00,0.0
2024-05-23 18:00:00+00:00,0.0
2024-05-23 19:00:00+00:00,0.0
2024-05-24 13:00:00+00:00,0.0
2024-05-24 14:00:00+00:00,0.0
2024-05-24 15:00:00+00:00,0.0
2024-05-24 16:00:00+00:00,0.0
2024-05-24 17:00:00+00:00,0.0
2024-05-24 18:00:00+00:00,0.0
2024-05-24 19:00:00+00:00,0.0
2024-05-28 13:00:00+00:00,0.0
2024-05-28 14:00:00+00:00,0.0
2024-05-28 15:00:00+00:00,0.0
2024-05-28 16:00:00+00:00,0.0
2024-05-28 17:00:00+00:00,0.0
2024-05-28 18:00:00+00:00,0.0
2024-05-28 19:00:00+00:00,0.0
2024-05-29 13:00:00+00:00,0.0
2024-05-29 14:00:00+00:00,0.0
2024-05-29 15:00:00+00:00,0.0
2024-05-29 16:00:00+00:00,0.0
2024-05-29 17:00:00+00:00,0.0
2024-05-29 18:00:00+00:00,0.0
2024-05-29 19:00:00+00:00,0.0
2024-05-30 13:00:00+00:00,0.0
2024-05-30 14:00:00+00:00,0.0
2024-05-30 15:00:00+00:00,0.0
2024-05-30 16:00:00+00:00,0.0
2024-05-30 17:00:00+00:00,0.0
2024-05-30 18:00:00+00:00,0.0
2024-05-30 19:00:00+00:00,0.0
2024-05-31 13:00:00+00:00,0.0
2024-05-31 14:00:00+00:00,0.0
2024-05-31 15:00:00+00:00,0.0
2024-05-31 16:00:00+00:00,0.0
2024-05-31 17:00:00+00:00,0.0
2024-05-31 18:00:00+00:00,0.0
2024-05-31 19:00:00+00:00,0.0
2024-06-03 13:00:00+00:00,0.0
2024-06-03 14:00:00+00:00,0.0
2024-06-03 15:00:00+00:00,0.0
2024-06-03 16:00:00+00:00,0.0
2024-06-03 17:00:00+00:00,0.0
2024-06-03 18:00:00+00:00,0.0
2024-06-03 19:00:00+00:00,0.0
2024-06-04 13:00:00+00:00,0.0
2024-06-04 14:00:00+00:00,0.0
2024-06-04 15:00:00+00:00,0.0
2024-06-04 16:00:00+00:00,0.0
2024-06-04 17:00:00+00:00,0.0
2024-06-04 18:00:00+00:00,0.0
2024-06-04 19:00:00+00:00,0.0
2024-06-05 13:00:00+00:00,0.0
2024-06-05 14:00:00+00:00,0.0
2024-06-05 17:00:00+00:00,0.0
2024-06-05 19:00:00+00:00,0.0
2024-06-06 13:00:00+00:00,0.0
2024-06-06 14:00:00+00:00,0.0
2024-06-07 13:00:00+00:00,0.0
2024-06-07 14:00:00+00:00,12.915876598993929
2024-06-07 15:00:00+00:00,-5.064462283953208
2024-06-07 16:00:00+00:00,10.981231664148442
2024-06-07 17:00:00+00:00,-1.694497765977145
2024-06-07 18:00:00+00:00,-0.7372782600092052
2024-06-07 19:00:00+00:00,-11.024543006161524
2024-06-10 13:00:00+00:00,-13.914595980809546
2024-06-10 14:00:00+00:00,-14.747905420149536
2024-06-10 16:00:00+00:00,4.36990700173569
2024-06-10 17:00:00+00:00,44.616195878054576
2024-06-10 18:00:00+00:00,36.58329373053525
2024-06-10 19:00:00+00:00,44.43363936032881
2024-06-11 13:00:00+00:00,56.38082152244871
2024-06-11 14:00:00+00:00,67.54050730903448
2024-06-11 15:00:00+00:00,107.31736042413903
2024-06-11 17:00:00+00:00,118.5674850681405
2024-06-11 18:00:00+00:00,117.3108559897223
2024-06-11 19:00:00+00:00,93.14265688889624
2024-06-12 13:00:00+00:00,163.1275537931807
2024-06-12 15:00:00+00:00,166.3113039867093
2024-06-12 18:00:00+00:00,161.07642357442958
2024-06-12 19:00:00+00:00,151.47338295910458
2024-06-13 13:00:00+00:00,97.564303118301
2024-06-13 14:00:00+00:00,106.88023652607806
2024-06-13 15:00:00+00:00,107.41242073177729
2024-06-13 17:00:00+00:00,124.1458382348383
2024-06-13 18:00:00+00:00,143.79814155432663
2024-06-13 19:00:00+00:00,167.41837007323647
2024-06-14 13:00:00+00:00,12.21434414324142
2024-06-14 14:00:00+00:00,40.50032597553971
2024-06-14 15:00:00+00:00,42.68911504076033
2024-06-14 17:00:00+00:00,40.45468684610828
2024-06-14 19:00:00+00:00,51.526963936081295
2024-06-17 13:00:00+00:00,50.23841475933914
2024-06-17 14:00:00+00:00,65.02505248739268
2024-06-17 16:00:00+00:00,76.49385194770669
2024-06-17 17:00:00+00:00,77.56698930197675
2024-06-17 18:00:00+00:00,82.75497503189168
2024-06-17 19:00:00+00:00,95.95575611162613
2024-06-18 15:00:00+00:00,31.542681426182355
2024-06-18 16:00:00+00:00,-10.912119839726984
2024-06-18 17:00:00+00:00,36.06179839513984
2024-06-18 18:00:00+00:00,38.499416058626764
2024-06-18 19:00:00+00:00,35.66611542624735
2024-06-20 13:00:00+00:00,129.6476537006522
2024-06-20 15:00:00+00:00,65.99160126227443
2024-06-20 16:00:00+00:00,70.14770015016286
2024-06-20 17:00:00+00:00,95.35249505671297
2024-06-20 18:00:00+00:00,85.15353174946394
2024-06-21 13:00:00+00:00,46.42437946187299
2024-06-21 17:00:00+00:00,32.02315908236865
2024-06-21 19:00:00+00:00,73.03592790978121
2024-06-24 13:00:00+00:00,111.96709452827304
2024-06-24 14:00:00+00:00,100.58579127804771
2024-06-24 15:00:00+00:00,89.17602843873529
2024-06-24 19:00:00+00:00,-5.2401155293871255
2024-06-25 13:00:00+00:00,-71.92443078995542
2024-06-25 14:00:00+00:00,-111.53557828966744
2024-06-25 15:00:00+00:00,-116.45182419737598
2024-06-25 16:00:00+00:00,-130.91963700393435
2024-06-25 17:00:00+00:00,-124.39344808603308
2024-06-25 19:00:00+00:00,-105.5497359519278
2024-06-26 13:00:00+00:00,-140.33185582362384
2024-06-26 14:00:00+00:00,-129.1916313994492
2024-06-26 15:00:00+00:00,-85.88684727547923
2024-06-26 16:00:00+00:00,-78.94593372699752
2024-06-26 18:00:00+00:00,-112.19254504350025
2024-06-26 19:00:00+00:00,-112.58799517935542
2024-06-27 14:00:00+00:00,-97.70611382521295
2024-06-27 18:00:00+00:00,-94.38440599522248
2024-06-27 19:00:00+00:00,-117.3357310454308
2024-06-28 13:00:00+00:00,-96.84148147188615
2024-06-28 15:00:00+00:00,-60.20671683333609
2024-06-28 17:00:00+00:00,-70.09054248068637
2024-06-28 18:00:00+00:00,-81.24588211421647
2024-06-28 19:00:00+00:00,-46.55056437072529
2024-07-01 13:00:00+00:00,-79.23055198583793
2024-07-01 14:00:00+00:00,-120.02758035276705
2024-07-01 15:00:00+00:00,-90.61843341957959
2024-07-01 17:00:00+00:00,-81.80023275435964
2024-07-01 18:00:00+00:00,-86.76295719294458
2024-07-02 13:00:00+00:00,-110.6071713974562
2024-07-02 16:00:00+00:00,-119.69228536278536
2024-07-02 18:00:00+00:00,-97.87733248811253
2024-07-02 19:00:00+00:00,-88.82448792180571
2024-07-03 13:00:00+00:00,-102.56981378196151
2024-07-03 14:00:00+00:00,-91.37629506809452
2024-07-03 15:00:00+00:00,-106.60257609157624
2024-07-05 13:00:00+00:00,-102.18855102453705
2024-07-05 15:00:00+00:00,-107.49399632956923
2024-07-05 16:00:00+00:00,-94.64326263853278
2024-07-05 18:00:00+00:00,-95.62218382887596
2024-07-05 19:00:00+00:00,-85.42709008387718
2024-07-08 13:00:00+00:00,-66.0805505406937
2024-07-08 14:00:00+00:00,-65.76839960768906
2024-07-08 15:00:00+00:00,-72.58662556242044
2024-07-08 16:00:00+00:00,-49.89835890502131
2024-07-08 17:00:00+00:00,-54.33287160360735
2024-07-08 18:00:00+00:00,-71.90371032537159
2024-07-08 19:00:00+00:00,-50.15712448561825
2024-07-09 13:00:00+00:00,-73.72038372863801
2024-07-09 14:00:00+00:00,-96.13607116238225
2024-07-09 16:00:00+00:00,-81.91101953400971
2024-07-09 17:00:00+00:00,-96.04740691283664
2024-07-09 18:00:00+00:00,-115.38559366463411
2024-07-10 13:00:00+00:00,-70.70881939074553
2024-07-10 14:00:00+00:00,-47.65384840847559
2024-07-10 15:00:00+00:00,-34.01394308825029
2024-07-10 16:00:00+00:00,-45.244003350665466
2024-07-10 17:00:00+00:00,-58.373612969234976
2024-07-10 18:00:00+00:00,-53.01907512400858
2024-07-10 19:00:00+00:00,-39.210843080598515
2024-07-11 13:00:00+00:00,52.4580504953745
2024-07-11 14:00:00+00:00,74.63037018252362
2024-07-11 15:00:00+00:00,56.519601032086555
2024-07-11 16:00:00+00:00,53.94768708809674
2024-07-11 17:00:00+00:00,87.89564163645446
2024-07-11 18:00:00+00:00,82.45370219308961
2024-07-12 13:00:00+00:00,144.9241445961752
2024-07-12 14:00:00+00:00,126.45016694774527
2024-07-12 16:00:00+00:00,112.2677242880013
2024-07-15 14:00:00+00:00,221.5456781302043
2024-07-15 15:00:00+00:00,262.8567842475651
2024-07-15 16:00:00+00:00,262.7977476265638
2024-07-15 17:00:00+00:00,230.42122951505786
2024-07-15 18:00:00+00:00,210.06389732980765
2024-07-15 19:00:00+00:00,196.01104908534342
2024-07-16 13:00:00+00:00,276.54764422933164
2024-07-16 14:00:00+00:00,294.5861767825963
2024-07-16 17:00:00+00:00,272.8408791739358
2024-07-16 18:00:00+00:00,272.8012747864279
2024-07-16 19:00:00+00:00,264.0927874733476
2024-07-17 13:00:00+00:00,304.97703411996605
2024-07-17 14:00:00+00:00,317.78151856392356
2024-07-17 16:00:00+00:00,343.9163714044196
2024-07-17 17:00:00+00:00,337.8379952548834
2024-07-17 18:00:00+00:00,343.13046631830656
2024-07-17 19:00:00+00:00,332.7404483823846
2024-07-18 13:00:00+00:00,356.10682550815994
2024-07-18 14:00:00+00:00,352.8907215365492
2024-07-18 18:00:00+00:00,265.29136465177476
2024-07-18 19:00:00+00:00,223.44723492726695
2024-07-19 13:00:00+00:00,49.353667316813016
2024-07-19 14:00:00+00:00,-12.802571615000616
2024-07-19 15:00:00+00:00,-10.571596831112762
2024-07-19 17:00:00+00:00,-10.208578750042934
2024-07-19 19:00:00+00:00,56.55479241575057
2024-07-22 13:00:00+00:00,-9.754611048123266
2024-07-22 14:00:00+00:00,-7.857019618284834
2024-07-22 15:00:00+00:00,-33.46725115760856
2024-07-22 18:00:00+00:00,1.8571803190400331
2024-07-22 19:00:00+00:00,-2.4605288874274116
2024-07-23 13:00:00+00:00,-48.28529112207683
2024-07-23 15:00:00+00:00,-79.58082985136008
2024-07-23 18:00:00+00:00,-120.30940366989319
2024-07-23 19:00:00+00:00,-118.77128110538592
2024-07-24 13:00:00+00:00,-135.78786379895516
2024-07-24 14:00:00+00:00,-143.66070450120307
2024-07-24 15:00:00+00:00,-129.81635415920692
2024-07-24 16:00:00+00:00,-153.83330317374913
2024-07-24 17:00:00+00:00,-178.55155300403015
2024-07-24 18:00:00+00:00,-157.66530670539487
2024-07-24 19:00:00+00:00,-172.14366306269383
2024-07-25 13:00:00+00:00,-94.9517744861118
2024-07-25 14:00:00+00:00,-69.51910186843764
2024-07-25 15:00:00+00:00,-92.52890234078072
2024-07-25 16:00:00+00:00,-56.48105914110661
2024-07-25 17:00:00+00:00,-86.98177852184432
2024-07-25 18:00:00+00:00,-97.77331401370225
2024-07-25 19:00:00+00:00,-105.03454086965067
2024-07-26 13:00:00+00:00,-73.62294343774597
2024-07-26 14:00:00+00:00,-100.35717947940418
2024-07-26 15:00:00+00:00,-73.19804899179451
2024-07-26 16:00:00+00:00,-65.17447725819774
2024-07-26 17:00:00+00:00,-84.59661929584276
2024-07-26 18:00:00+00:00,-62.32262701968726
2024-07-26 19:00:00+00:00,-67.39467565830635
2024-07-29 13:00:00+00:00,-58.40105103144875
2024-07-29 14:00:00+00:00,-47.293495044335934
2024-07-29 15:00:00+00:00,-33.73124475683926
2024-07-29 16:00:00+00:00,-47.73197030030529
2024-07-29 18:00:00+00:00,-68.81533864769517
2024-07-30 13:00:00+00:00,-145.9080123255159
2024-07-30 14:00:00+00:00,-125.69063478783599
2024-07-30 15:00:00+00:00,-124.31738553574793
2024-07-30 16:00:00+00:00,-87.37433671798304
2024-07-30 17:00:00+00:00,-79.58260445922984
2024-07-30 18:00:00+00:00,-83.6474250882556
2024-07-30 19:00:00+00:00,-109.43914091082029
2024-07-31 13:00:00+00:00,-103.73311325627449
2024-07-31 14:00:00+00:00,-78.30240807387376
2024-07-31 16:00:00+00:00,-69.86084871585328
2024-07-31 17:00:00+00:00,-83.64658568680863
2024-07-31 18:00:00+00:00,-102.24450648192399
2024-07-31 19:00:00+00:00,-117.42985733967237
2024-08-01 13:00:00+00:00,-160.78415370456267
2024-08-01 14:00:00+00:00,-172.1101587734249
2024-08-01 15:00:00+00:00,-147.10005522476183
2024-08-01 16:00:00+00:00,-137.48707762710544
2024-08-01 17:00:00+00:00,-155.66229473562626
2024-08-01 18:00:00+00:00,-174.24314376282274
2024-08-01 19:00:00+00:00,-158.8564155912445
2024-08-02 13:00:00+00:00,-187.27194113120868
2024-08-02 14:00:00+00:00,-200.5319845665073
2024-08-02 15:00:00+00:00,-180.27031925730492
2024-08-02 16:00:00+00:00,-227.35885022493738
2024-08-02 17:00:00+00:00,-205.00522957299725
2024-08-02 19:00:00+00:00,-206.01746818492222
2024-08-05 13:00:00+00:00,-319.1420278956633
2024-08-05 14:00:00+00:00,-319.42081276048543
2024-08-05 15:00:00+00:00,-323.525724153798
2024-08-05 16:00:00+00:00,-352.2507878104765
2024-08-05 17:00:00+00:00,-342.8902755403
2024-08-05 18:00:00+00:00,-360.65790767280447
2024-08-05 19:00:00+00:00,-379.51501020000285
2024-08-06 13:00:00+00:00,-354.0892551058382
2024-08-06 14:00:00+00:00,-440.2313199392009
2024-08-06 15:00:00+00:00,-446.0194336597772
2024-08-06 16:00:00+00:00,-439.4054198937753
2024-08-06 17:00:00+00:00,-410.09707205029866
2024-08-06 18:00:00+00:00,-431.5885785532514
2024-08-06 19:00:00+00:00,-454.49916385464985
2024-08-07 13:00:00+00:00,-288.4874527108242
2024-08-07 14:00:00+00:00,-326.4022332247408
2024-08-07 15:00:00+00:00,-353.169740722633
2024-08-07 16:00:00+00:00,-374.1286468684023
2024-08-07 17:00:00+00:00,-388.2151969175339
2024-08-07 19:00:00+00:00,-429.3796743988322
2024-08-08 13:00:00+00:00,-335.03167173106976
2024-08-08 14:00:00+00:00,-361.6340279861431
2024-08-08 15:00:00+00:00,-349.3523902354898
2024-08-08 16:00:00+00:00,-356.446686371774
2024-08-08 17:00:00+00:00,-360.6639750928853
2024-08-08 18:00:00+00:00,-365.12424585776625
2024-08-08 19:00:00+00:00,-420.74697289866384
2024-08-09 13:00:00+00:00,-421.59979904984175
2024-08-09 14:00:00+00:00,-428.77758967487875
2024-08-09 15:00:00+00:00,-443.9951892689625
2024-08-09 16:00:00+00:00,-416.2645356993413
2024-08-09 17:00:00+00:00,-435.13867244732364
2024-08-09 18:00:00+00:00,-435.99210516691153
2024-08-12 14:00:00+00:00,-456.2598378961943
2024-08-12 16:00:00+00:00,-434.6955757411321
2024-08-12 17:00:00+00:00,-456.14405712397064
2024-08-12 18:00:00+00:00,-456.07205335983633
2024-08-12 19:00:00+00:00,-473.95481018156545
2024-08-13 13:00:00+00:00,-494.27887091058335
2024-08-13 16:00:00+00:00,-431.0621742259945
2024-08-13 18:00:00+00:00,-441.6415268913228
2024-08-13 19:00:00+00:00,-451.82971381479274
2024-08-14 13:00:00+00:00,-461.1218590500482
2024-08-14 14:00:00+00:00,-441.460416343455
2024-08-14 15:00:00+00:00,-432.7306895108567
2024-08-14 18:00:00+00:00,-398.53923368905816
2024-08-14 19:00:00+00:00,-422.39438556535237
2024-08-15 13:00:00+00:00,-367.2946505373202
2024-08-15 14:00:00+00:00,-356.3030586408787
2024-08-15 16:00:00+00:00,-332.7051694852446
2024-08-15 17:00:00+00:00,-346.9776315195956
2024-08-15 18:00:00+00:00,-346.12378597984406
2024-08-16 13:00:00+00:00,-400.2416619124672
2024-08-16 14:00:00+00:00,-370.7193482163744
2024-08-16 15:00:00+00:00,-369.11528930781253
2024-08-16 17:00:00+00:00,-372.9423934588359
2024-08-16 18:00:00+00:00,-358.94292346830497
2024-08-16 19:00:00+00:00,-340.4356319475288
2024-08-19 13:00:00+00:00,-328.6721536799064
2024-08-19 14:00:00+00:00,-310.266754146009
2024-08-19 19:00:00+00:00,-302.9873250298182
2024-08-20 13:00:00+00:00,-306.7961845044885
2024-08-20 15:00:00+00:00,-309.71917210630846
2024-08-20 17:00:00+00:00,-318.9103349334056
2024-08-20 18:00:00+00:00,-308.65116696569595
2024-08-21 13:00:00+00:00,-248.72016403570208
2024-08-21 14:00:00+00:00,-249.16064673257773
2024-08-21 15:00:00+00:00,-260.62819063995744
2024-08-21 16:00:00+00:00,-249.96582631341835
2024-08-21 17:00:00+00:00,-245.67649628103578
2024-08-21 19:00:00+00:00,-253.02993660226957
2024-08-22 13:00:00+00:00,-255.95941487413322
2024-08-22 14:00:00+00:00,-262.0499258638314
2024-08-22 15:00:00+00:00,-254.28917969000494
2024-08-22 17:00:00+00:00,-258.4513459979734
2024-08-22 19:00:00+00:00,-242.0943440675525
2024-08-23 13:00:00+00:00,-202.2619077422108
2024-08-23 14:00:00+00:00,-165.86191531889892
2024-08-23 15:00:00+00:00,-201.5096902638166
2024-08-23 16:00:00+00:00,-181.59410342685032
2024-08-23 17:00:00+00:00,-173.0367632966078
2024-08-23 18:00:00+00:00,-163.23432235969744
2024-08-26 13:00:00+00:00,-138.20527295431822
2024-08-26 14:00:00+00:00,-156.85919311115842
2024-08-26 15:00:00+00:00,-146.43067570036945
2024-08-26 18:00:00+00:00,-144.9769245731971
2024-08-26 19:00:00+00:00,-157.81426432190128
2024-08-27 13:00:00+00:00,-142.88506503543348
2024-08-27 14:00:00+00:00,-146.56759308866435
2024-08-27 16:00:00+00:00,-145.47644389107413
2024-08-27 19:00:00+00:00,-150.84007931718654
2024-08-28 16:00:00+00:00,-158.50315236708315
2024-08-28 17:00:00+00:00,-188.5100036985375
2024-08-28 19:00:00+00:00,-169.798309572104
2024-08-29 13:00:00+00:00,-124.54119375874346
2024-08-29 14:00:00+00:00,-124.96609175393058
2024-08-29 15:00:00+00:00,-125.7635286610329
2024-08-29 16:00:00+00:00,-109.77686778469486
2024-08-29 17:00:00+00:00,-108.66340683310142
2024-08-29 19:00:00+00:00,-123.30967376209676
2024-08-30 13:00:00+00:00,-83.2639205686639
2024-08-30 14:00:00+00:00,-115.21941379647097
2024-08-30 16:00:00+00:00,-111.23897170325321
2024-08-30 19:00:00+00:00,-105.9896639810323
2024-09-03 13:00:00+00:00,-168.06759889559183
2024-09-03 14:00:00+00:00,-144.74812355065566
2024-09-03 16:00:00+00:00,-174.74461464981772
2024-09-03 17:00:00+00:00,-166.66513816644513
2024-09-03 19:00:00+00:00,-190.05577787406978
2024-09-04 13:00:00+00:00,-174.52299718617775
2024-09-04 14:00:00+00:00,-214.64989414074313
2024-09-04 19:00:00+00:00,-245.16097375377194
2024-09-05 13:00:00+00:00,-286.3244736125349
2024-09-05 14:00:00+00:00,-305.1242254201012
2024-09-05 15:00:00+00:00,-294.50078381838995
2024-09-05 16:00:00+00:00,-291.7151297563482
2024-09-05 17:00:00+00:00,-281.81511030745935
2024-09-05 19:00:00+00:00,-307.9447351293216
2024-09-06 13:00:00+00:00,-294.1635238036147
2024-09-06 14:00:00+00:00,-329.5753568784005
2024-09-06 16:00:00+00:00,-309.38289800556817
2024-09-06 18:00:00+00:00,-341.2038974374724
2024-09-06 19:00:00+00:00,-342.10339253645407
2024-09-09 13:00:00+00:00,-282.46181263397204
2024-09-09 14:00:00+00:00,-289.8786430567382
2024-09-09 15:00:00+00:00,-281.4669792969551
2024-09-09 17:00:00+00:00,-278.1045317181541
2024-09-09 18:00:00+00:00,-289.14699076265913
2024-09-09 19:00:00+00:00,-285.66713312332985
2024-09-10 13:00:00+00:00,-312.10447784489793
2024-09-10 14:00:00+00:00,-274.7435796237986
2024-09-10 15:00:00+00:00,-295.60406785614174
2024-09-10 17:00:00+00:00,-274.6468752210112
2024-09-10 18:00:00+00:00,-273.29160310449674
2024-09-10 19:00:00+00:00,-278.3108459597427
2024-09-11 13:00:00+00:00,-388.4123637684519
2024-09-11 14:00:00+00:00,-369.339010017333
2024-09-11 15:00:00+00:00,-362.78729586617527
2024-09-11 16:00:00+00:00,-349.9779084923582
2024-09-11 19:00:00+00:00,-313.49251836257815
2024-09-12 13:00:00+00:00,-386.4050138891107
2024-09-12 14:00:00+00:00,-390.64912804202237
2024-09-12 15:00:00+00:00,-357.42869804177235
2024-09-12 16:00:00+00:00,-348.94737655747866
2024-09-12 17:00:00+00:00,-329.8947432709455
2024-09-12 18:00:00+00:00,-332.85107113459605
2024-09-12 19:00:00+00:00,-319.3556731065655
2024-09-13 13:00:00+00:00,-235.263377897275
2024-09-13 14:00:00+00:00,-229.94622100204177
2024-09-13 15:00:00+00:00,-236.98102681870276
2024-09-16 13:00:00+00:00,-215.71855536435208
2024-09-16 14:00:00+00:00,-232.1936234383023
2024-09-16 15:00:00+00:00,-215.89420506054964
2024-09-16 16:00:00+00:00,-222.2836599086061
2024-09-16 17:00:00+00:00,-223.30625875282502
2024-09-16 18:00:00+00:00,-231.00470531180846
2024-09-16 19:00:00+00:00,-227.88744250358573
2024-09-17 13:00:00+00:00,-176.6332918172207
2024-09-17 14:00:00+00:00,-182.71386582458712
2024-09-17 16:00:00+00:00,-225.12302796106556
2024-09-17 18:00:00+00:00,-234.06251534754227
2024-09-17 19:00:00+00:00,-236.79543304170025
2024-09-18 13:00:00+00:00,-209.5170683711047
2024-09-18 14:00:00+00:00,-193.14709219907365
2024-09-18 15:00:00+00:00,-192.84184808759764
2024-09-18 17:00:00+00:00,-173.72411075998124
2024-09-18 18:00:00+00:00,-175.88653519049691
2024-09-18 19:00:00+00:00,-215.1277577876134
2024-09-19 13:00:00+00:00,-136.0360834725999
2024-09-19 14:00:00+00:00,-115.80834925186532
2024-09-19 15:00:00+00:00,-93.79482835857976
2024-09-19 17:00:00+00:00,-80.56483580178795
2024-09-19 18:00:00+00:00,-98.18234347135285
2024-09-20 13:00:00+00:00,-265.44061477885293
2024-09-20 18:00:00+00:00,-231.61747890606773
2024-09-20 19:00:00+00:00,-227.8832443033236
2024-09-23 13:00:00+00:00,-214.99312577062415
2024-09-23 14:00:00+00:00,-198.41464459765083
2024-09-23 15:00:00+00:00,-218.3819379841297
2024-09-23 16:00:00+00:00,-204.64468698495781
2024-09-23 18:00:00+00:00,-217.6111808065388
2024-09-23 19:00:00+00:00,-222.63412699802817
2024-09-24 13:00:00+00:00,-164.94361968276553
2024-09-24 14:00:00+00:00,-195.60052384804845
2024-09-24 15:00:00+00:00,-192.32917366815963
2024-09-24 18:00:00+00:00,-208.67087111105576
2024-09-24 19:00:00+00:00,-202.15788926780124
2024-09-25 13:00:00+00:00,-216.2241350038358
2024-09-25 14:00:00+00:00,-218.4155694547959
2024-09-25 16:00:00+00:00,-228.6203854872535
2024-09-25 18:00:00+00:00,-206.78270470708856
2024-09-26 13:00:00+00:00,4.079517577866113
2024-09-26 14:00:00+00:00,61.92024516104295
2024-09-26 15:00:00+00:00,100.03074685121904
2024-09-26 16:00:00+00:00,104.2235670568671
2024-09-26 17:00:00+00:00,105.9994096486127
2024-09-26 18:00:00+00:00,135.96062185063573
2024-09-26 19:00:00+00:00,131.64291264416872
2024-09-27 13:00:00+00:00,226.49169728121666
2024-09-27 14:00:00+00:00,226.49169728121666
2024-09-27 16:00:00+00:00,226.49169728121666
2024-09-27 17:00:00+00:00,226.49169728121666
2024-09-27 18:00:00+00:00,226.49169728121666
2024-09-27 19:00:00+00:00,226.49169728121666
2024-09-30 13:00:00+00:00,226.49169728121666
2024-09-30 14:00:00+00:00,226.49169728121666
2024-09-30 15:00:00+00:00,226.49169728121666
2024-09-30 16:00:00+00:00,226.49169728121666
2024-09-30 17:00:00+00:00,226.49169728121666
2024-09-30 19:00:00+00:00,226.49169728121666
2024-10-01 13:00:00+00:00,226.49169728121666
2024-10-01 14:00:00+00:00,226.49169728121666
2024-10-01 15:00:00+00:00,226.49169728121666
2024-10-01 16:00:00+00:00,226.49169728121666
2024-10-01 17:00:00+00:00,226.49169728121666
2024-10-01 19:00:00+00:00,226.49169728121666
2024-10-02 13:00:00+00:00,226.49169728121666
2024-10-02 14:00:00+00:00,226.49169728121666
2024-10-02 15:00:00+00:00,226.49169728121666
2024-10-02 16:00:00+00:00,226.49169728121666
2024-10-02 18:00:00+00:00,226.49169728121666
2024-10-02 19:00:00+00:00,226.49169728121666
2024-10-03 13:00:00+00:00,226.49169728121666
2024-10-03 19:00:00+00:00,226.49169728121666
2024-10-04 13:00:00+00:00,226.49169728121666
2024-10-04 15:00:00+00:00,226.49169728121666
2024-10-04 16:00:00+00:00,226.49169728121666
2024-10-04 17:00:00+00:00,226.49169728121666
2024-10-04 18:00:00+00:00,226.49169728121666
2024-10-04 19:00:00+00:00,226.49169728121666
2024-10-07 13:00:00+00:00,226.49169728121666
2024-10-07 14:00:00+00:00,226.49169728121666
2024-10-07 16:00:00+00:00,226.49169728121666
2024-10-07 18:00:00+00:00,226.49169728121666
2024-10-08 13:00:00+00:00,226.49169728121666
2024-10-08 14:00:00+00:00,226.49169728121666
2024-10-08 15:00:00+00:00,226.49169728121666
2024-10-08 16:00:00+00:00,226.49169728121666
2024-10-08 17:00:00+00:00,226.49169728121666
2024-10-09 13:00:00+00:00,226.49169728121666
2024-10-09 14:00:00+00:00,226.49169728121666
2024-10-09 16:00:00+00:00,226.49169728121666
2024-10-10 13:00:00+00:00,226.49169728121666
2024-10-10 14:00:00+00:00,226.49169728121666
2024-10-10 15:00:00+00:00,226.49169728121666
2024-10-10 16:00:00+00:00,226.49169728121666
2024-10-11 13:00:00+00:00,226.49169728121666
2024-10-11 17:00:00+00:00,226.49169728121666
2024-10-14 13:00:00+00:00,226.49169728121666
2024-10-14 14:00:00+00:00,226.49169728121666
2024-10-14 15:00:00+00:00,226.49169728121666
2024-10-14 18:00:00+00:00,226.49169728121666
2024-10-14 19:00:00+00:00,226.49169728121666
2024-10-15 13:00:00+00:00,226.49169728121666
2024-10-15 14:00:00+00:00,226.49169728121666
2024-10-15 16:00:00+00:00,226.49169728121666
2024-10-15 17:00:00+00:00,226.49169728121666
2024-10-15 18:00:00+00:00,226.49169728121666
2024-10-16 13:00:00+00:00,226.49169728121666
2024-10-16 14:00:00+00:00,226.49169728121666
2024-10-16 15:00:00+00:00,226.49169728121666
2024-10-16 17:00:00+00:00,226.49169728121666
2024-10-16 19:00:00+00:00,226.49169728121666
2024-10-17 14:00:00+00:00,226.49169728121666
2024-10-17 17:00:00+00:00,226.49169728121666
2024-10-17 19:00:00+00:00,226.49169728121666
2024-10-18 13:00:00+00:00,226.49169728121666
2024-10-18 14:00:00+00:00,226.49169728121666
2024-10-18 15:00:00+00:00,226.49169728121666
2024-10-18 16:00:00+00:00,226.49169728121666
2024-10-18 18:00:00+00:00,226.49169728121666
2024-10-18 19:00:00+00:00,226.49169728121666
2024-10-21 14:00:00+00:00,226.49169728121666
2024-10-21 15:00:00+00:00,226.49169728121666
2024-10-21 16:00:00+00:00,226.49169728121666
2024-10-21 17:00:00+00:00,226.49169728121666
2024-10-21 18:00:00+00:00,226.49169728121666
2024-10-21 19:00:00+00:00,226.49169728121666
2024-10-22 13:00:00+00:00,226.49169728121666
2024-10-22 14:00:00+00:00,226.49169728121666
2024-10-22 16:00:00+00:00,226.49169728121666
2024-10-22 17:00:00+00:00,226.49169728121666
2024-10-22 18:00:00+00:00,226.49169728121666
2024-10-22 19:00:00+00:00,226.49169728121666
2024-10-23 13:00:00+00:00,226.49169728121666
2024-10-23 14:00:00+00:00,226.49169728121666
2024-10-23 15:00:00+00:00,226.49169728121666
2024-10-23 16:00:00+00:00,226.49169728121666
2024-10-23 17:00:00+00:00,226.49169728121666
2024-10-23 18:00:00+00:00,226.49169728121666
2024-10-23 19:00:00+00:00,226.49169728121666
2024-10-24 13:00:00+00:00,226.49169728121666
2024-10-24 14:00:00+00:00,226.49169728121666
2024-10-24 15:00:00+00:00,226.49169728121666
2024-10-24 16:00:00+00:00,226.49169728121666
2024-10-24 17:00:00+00:00,226.49169728121666
2024-10-24 18:00:00+00:00,226.49169728121666
2024-10-25 13:00:00+00:00,226.49169728121666
2024-10-25 15:00:00+00:00,226.49169728121666
2024-10-25 16:00:00+00:00,226.49169728121666
2024-10-25 19:00:00+00:00,226.49169728121666
2024-10-28 13:00:00+00:00,226.49169728121666
2024-10-28 14:00:00+00:00,226.49169728121666
2024-10-28 15:00:00+00:00,226.49169728121666
2024-10-28 16:00:00+00:00,226.49169728121666
2024-10-28 17:00:00+00:00,226.49169728121666
2024-10-28 18:00:00+00:00,226.49169728121666
2024-10-28 19:00:00+00:00,226.49169728121666
2024-10-29 13:00:00+00:00,226.49169728121666
2024-10-29 14:00:00+00:00,226.49169728121666
2024-10-29 15:00:00+00:00,226.49169728121666
2024-10-29 16:00:00+00:00,226.49169728121666
2024-10-29 17:00:00+00:00,226.49169728121666
2024-10-29 18:00:00+00:00,226.49169728121666
2024-10-29 19:00:00+00:00,226.49169728121666
2024-10-30 13:00:00+00:00,226.49169728121666
2024-10-30 14:00:00+00:00,226.49169728121666
2024-10-30 15:00:00+00:00,226.49169728121666
2024-10-30 16:00:00+00:00,226.49169728121666
2024-10-30 17:00:00+00:00,226.49169728121666
2024-10-30 18:00:00+00:00,226.49169728121666
2024-10-30 19:00:00+00:00,226.49169728121666
2024-10-31 13:00:00+00:00,226.49169728121666
2024-10-31 15:00:00+00:00,226.49169728121666
2024-10-31 18:00:00+00:00,226.49169728121666
2024-10-31 19:00:00+00:00,226.49169728121666
2024-11-01 13:00:00+00:00,226.49169728121666
2024-11-01 15:00:00+00:00,226.49169728121666
2024-11-01 17:00:00+00:00,226.49169728121666
2024-11-01 18:00:00+00:00,226.49169728121666
2024-11-01 19:00:00+00:00,226.49169728121666
2024-11-04 14:00:00+00:00,226.49169728121666
2024-11-04 16:00:00+00:00,226.49169728121666
2024-11-04 18:00:00+00:00,226.49169728121666
2024-11-04 19:00:00+00:00,226.49169728121666
2024-11-04 20:00:00+00:00,226.49169728121666
2024-11-05 14:00:00+00:00,226.49169728121666
2024-11-05 15:00:00+00:00,226.49169728121666
2024-11-05 16:00:00+00:00,226.49169728121666
2024-11-05 18:00:00+00:00,226.49169728121666
2024-11-05 19:00:00+00:00,226.49169728121666
2024-11-05 20:00:00+00:00,226.49169728121666
2024-11-06 14:00:00+00:00,226.49169728121666
2024-11-06 15:00:00+00:00,226.49169728121666
2024-11-06 16:00:00+00:00,226.49169728121666
2024-11-06 17:00:00+00:00,226.49169728121666
2024-11-06 19:00:00+00:00,226.49169728121666
2024-11-06 20:00:00+00:00,226.49169728121666
2024-11-07 14:00:00+00:00,226.49169728121666
2024-11-07 15:00:00+00:00,226.49169728121666
2024-11-07 17:00:00+00:00,226.49169728121666
2024-11-07 18:00:00+00:00,226.49169728121666
2024-11-07 19:00:00+00:00,226.49169728121666
2024-11-08 14:00:00+00:00,226.49169728121666
2024-11-08 15:00:00+00:00,226.49169728121666
2024-11-08 16:00:00+00:00,226.49169728121666
2024-11-08 17:00:00+00:00,226.49169728121666
2024-11-08 18:00:00+00:00,226.49169728121666
2024-11-08 19:00:00+00:00,226.49169728121666
2024-11-08 20:00:00+00:00,226.49169728121666
2024-11-11 14:00:00+00:00,226.49169728121666
2024-11-11 15:00:00+00:00,226.49169728121666
2024-11-11 18:00:00+00:00,226.49169728121666
2024-11-11 19:00:00+00:00,226.49169728121666
2024-11-11 20:00:00+00:00,226.49169728121666
2024-11-12 14:00:00+00:00,226.49169728121666
2024-11-12 15:00:00+00:00,226.49169728121666
2024-11-12 16:00:00+00:00,226.49169728121666
2024-11-12 17:00:00+00:00,226.49169728121666
2024-11-12 18:00:00+00:00,226.49169728121666
2024-11-12 19:00:00+00:00,226.49169728121666
2024-11-12 20:00:00+00:00,226.49169728121666
2024-11-13 14:00:00+00:00,226.49169728121666
2024-11-13 15:00:00+00:00,226.49169728121666
2024-11-13 17:00:00+00:00,226.49169728121666
2024-11-13 18:00:00+00:00,226.49169728121666
2024-11-13 19:00:00+00:00,226.49169728121666
2024-11-13 20:00:00+00:00,226.49169728121666
2024-11-14 15:00:00+00:00,226.49169728121666
2024-11-14 16:00:00+00:00,226.49169728121666
2024-11-14 17:00:00+00:00,226.49169728121666
2024-11-14 18:00:00+00:00,226.49169728121666
2024-11-14 19:00:00+00:00,226.49169728121666
2024-11-14 20:00:00+00:00,226.49169728121666
2024-11-15 14:00:00+00:00,226.49169728121666
2024-11-15 15:00:00+00:00,226.49169728121666
2024-11-15 16:00:00+00:00,226.49169728121666
2024-11-15 17:00:00+00:00,226.49169728121666
2024-11-15 18:00:00+00:00,226.49169728121666
2024-11-15 19:00:00+00:00,226.49169728121666
2024-11-15 20:00:00+00:00,226.49169728121666
2024-11-18 14:00:00+00:00,226.49169728121666
2024-11-18 15:00:00+00:00,226.49169728121666
2024-11-18 17:00:00+00:00,226.49169728121666
2024-11-18 18:00:00+00:00,226.49169728121666
2024-11-18 19:00:00+00:00,226.49169728121666
2024-11-18 20:00:00+00:00,226.49169728121666
2024-11-19 14:00:00+00:00,226.49169728121666
2024-11-19 15:00:00+00:00,226.49169728121666
2024-11-19 16:00:00+00:00,226.49169728121666
2024-11-19 17:00:00+00:00,226.49169728121666
2024-11-19 18:00:00+00:00,226.49169728121666
2024-11-19 19:00:00+00:00,226.49169728121666
2024-11-19 20:00:00+00:00,226.49169728121666
2024-11-20 14:00:00+00:00,226.49169728121666
2024-11-20 15:00:00+00:00,226.49169728121666
2024-11-20 16:00:00+00:00,226.49169728121666
2024-11-20 17:00:00+00:00,226.49169728121666
2024-11-20 18:00:00+00:00,226.49169728121666
2024-11-20 19:00:00+00:00,226.49169728121666
2024-11-20 20:00:00+00:00,226.49169728121666
2024-11-21 14:00:00+00:00,226.49169728121666
2024-11-21 15:00:00+00:00,226.49169728121666
2024-11-21 16:00:00+00:00,226.49169728121666
2024-11-21 17:00:00+00:00,226.49169728121666
2024-11-21 18:00:00+00:00,226.49169728121666
2024-11-21 19:00:00+00:00,226.49169728121666
2024-11-21 20:00:00+00:00,226.49169728121666
2024-11-22 14:00:00+00:00,226.49169728121666
2024-11-22 15:00:00+00:00,226.49169728121666
2024-11-22 16:00:00+00:00,226.49169728121666
2024-11-22 18:00:00+00:00,226.49169728121666
2024-11-22 19:00:00+00:00,226.49169728121666
2024-11-25 14:00:00+00:00,226.49169728121666
2024-11-25 15:00:00+00:00,226.49169728121666
2024-11-25 16:00:00+00:00,226.49169728121666
2024-11-25 17:00:00+00:00,226.49169728121666
2024-11-25 18:00:00+00:00,226.49169728121666
2024-11-25 19:00:00+00:00,226.49169728121666
2024-11-25 20:00:00+00:00,226.49169728121666
2024-11-26 14:00:00+00:00,226.49169728121666
2024-11-26 15:00:00+00:00,226.49169728121666
2024-11-26 16:00:00+00:00,226.49169728121666
2024-11-26 17:00:00+00:00,226.49169728121666
2024-11-26 18:00:00+00:00,226.49169728121666
2024-11-26 19:00:00+00:00,226.49169728121666
2024-11-26 20:00:00+00:00,226.49169728121666
2024-11-27 14:00:00+00:00,226.49169728121666
2024-11-27 15:00:00+00:00,226.49169728121666
2024-11-27 16:00:00+00:00,226.49169728121666
2024-11-27 17:00:00+00:00,226.49169728121666
2024-11-27 18:00:00+00:00,226.49169728121666
2024-11-27 19:00:00+00:00,226.49169728121666
2024-11-27 20:00:00+00:00,226.49169728121666
2024-11-29 14:00:00+00:00,226.49169728121666
2024-11-29 15:00:00+00:00,226.49169728121666
2024-11-29 16:00:00+00:00,226.49169728121666
2024-12-02 14:00:00+00:00,226.49169728121666
2024-12-02 15:00:00+00:00,226.49169728121666
2024-12-02 17:00:00+00:00,226.49169728121666
2024-12-02 18:00:00+00:00,226.49169728121666
2024-12-02 19:00:00+00:00,226.49169728121666
2024-12-02 20:00:00+00:00,226.49169728121666
2024-12-03 14:00:00+00:00,226.49169728121666
2024-12-03 15:00:00+00:00,226.49169728121666
2024-12-03 16:00:00+00:00,226.49169728121666
2024-12-03 17:00:00+00:00,226.49169728121666
2024-12-03 18:00:00+00:00,226.49169728121666
2024-12-03 19:00:00+00:00,226.49169728121666
2024-12-03 20:00:00+00:00,226.49169728121666
2024-12-04 14:00:00+00:00,226.49169728121666
2024-12-04 15:00:00+00:00,226.49169728121666
2024-12-04 16:00:00+00:00,226.49169728121666
2024-12-04 17:00:00+00:00,226.49169728121666
2024-12-04 18:00:00+00:00,226.49169728121666
2024-12-04 19:00:00+00:00,226.49169728121666
2024-12-05 14:00:00+00:00,226.49169728121666
2024-12-05 15:00:00+00:00,226.49169728121666
2024-12-05 16:00:00+00:00,226.49169728121666
2024-12-05 17:00:00+00:00,226.49169728121666
2024-12-05 18:00:00+00:00,226.49169728121666
2024-12-05 19:00:00+00:00,226.49169728121666
2024-12-05 20:00:00+00:00,226.49169728121666
2024-12-06 14:00:00+00:00,226.49169728121666
2024-12-06 15:00:00+00:00,226.49169728121666
2024-12-06 16:00:00+00:00,226.49169728121666
2024-12-06 17:00:00+00:00,226.49169728121666
2024-12-06 18:00:00+00:00,226.49169728121666
2024-12-06 20:00:00+00:00,226.49169728121666
2024-12-09 14:00:00+00:00,226.49169728121666
2024-12-09 15:00:00+00:00,226.49169728121666
2024-12-09 16:00:00+00:00,226.49169728121666
2024-12-09 17:00:00+00:00,226.49169728121666
2024-12-09 19:00:00+00:00,226.49169728121666
2024-12-09 20:00:00+00:00,226.49169728121666
2024-12-10 14:00:00+00:00,226.49169728121666
2024-12-10 15:00:00+00:00,226.49169728121666
2024-12-10 16:00:00+00:00,226.49169728121666
2024-12-10 18:00:00+00:00,226.49169728121666
2024-12-10 19:00:00+00:00,226.49169728121666
2024-12-11 14:00:00+00:00,226.49169728121666
2024-12-11 15:00:00+00:00,226.49169728121666
2024-12-11 16:00:00+00:00,226.49169728121666
2024-12-11 17:00:00+00:00,226.49169728121666
2024-12-11 18:00:00+00:00,226.49169728121666
2024-12-11 19:00:00+00:00,226.49169728121666
2024-12-11 20:00:00+00:00,226.49169728121666
2024-12-12 14:00:00+00:00,226.49169728121666
2024-12-12 15:00:00+00:00,226.49169728121666
2024-12-12 16:00:00+00:00,226.49169728121666
2024-12-12 18:00:00+00:00,226.49169728121666
2024-12-12 19:00:00+00:00,226.49169728121666
2024-12-12 20:00:00+00:00,226.49169728121666
2024-12-13 16:00:00+00:00,226.49169728121666
2024-12-13 17:00:00+00:00,226.49169728121666
2024-12-13 19:00:00+00:00,226.49169728121666
2024-12-13 20:00:00+00:00,226.49169728121666
2024-12-16 14:00:00+00:00,226.49169728121666
2024-12-16 15:00:00+00:00,226.49169728121666
2024-12-16 16:00:00+00:00,226.49169728121666
2024-12-16 17:00:00+00:00,226.49169728121666
2024-12-16 18:00:00+00:00,226.49169728121666
2024-12-16 19:00:00+00:00,226.49169728121666
2024-12-16 20:00:00+00:00,226.49169728121666
2024-12-17 14:00:00+00:00,226.49169728121666
2024-12-17 15:00:00+00:00,226.49169728121666
2024-12-17 16:00:00+00:00,226.49169728121666
2024-12-17 17:00:00+00:00,226.49169728121666
2024-12-17 20:00:00+00:00,226.49169728121666
2024-12-18 14:00:00+00:00,226.49169728121666
2024-12-18 15:00:00+00:00,226.49169728121666
2024-12-18 16:00:00+00:00,226.49169728121666
2024-12-18 18:00:00+00:00,226.49169728121666
2024-12-18 19:00:00+00:00,226.49169728121666
2024-12-18 20:00:00+00:00,226.49169728121666
2024-12-19 14:00:00+00:00,226.49169728121666
2024-12-19 15:00:00+00:00,226.49169728121666
2024-12-19 16:00:00+00:00,226.49169728121666
2024-12-19 17:00:00+00:00,226.49169728121666
2024-12-19 18:00:00+00:00,226.49169728121666
2024-12-19 19:00:00+00:00,226.49169728121666
2024-12-19 20:00:00+00:00,226.49169728121666
2024-12-20 14:00:00+00:00,226.49169728121666
2024-12-20 15:00:00+00:00,226.49169728121666
2024-12-20 16:00:00+00:00,226.49169728121666
2024-12-20 17:00:00+00:00,226.49169728121666
2024-12-20 18:00:00+00:00,226.49169728121666
2024-12-20 19:00:00+00:00,226.49169728121666
2024-12-20 20:00:00+00:00,226.49169728121666
2024-12-23 14:00:00+00:00,226.49169728121666
2024-12-23 15:00:00+00:00,226.49169728121666
2024-12-23 16:00:00+00:00,226.49169728121666
2024-12-23 17:00:00+00:00,226.49169728121666
2024-12-23 18:00:00+00:00,226.49169728121666
2024-12-23 19:00:00+00:00,226.49169728121666
2024-12-23 20:00:00+00:00,226.49169728121666
2024-12-24 14:00:00+00:00,226.49169728121666
2024-12-24 15:00:00+00:00,226.49169728121666
2024-12-24 16:00:00+00:00,226.49169728121666
2024-12-26 14:00:00+00:00,226.49169728121666
2024-12-26 15:00:00+00:00,226.49169728121666
2024-12-26 16:00:00+00:00,226.49169728121666
2024-12-26 17:00:00+00:00,226.49169728121666
2024-12-26 18:00:00+00:00,226.49169728121666
2024-12-26 19:00:00+00:00,226.49169728121666
2024-12-26 20:00:00+00:00,226.49169728121666
2024-12-27 14:00:00+00:00,226.49169728121666
2024-12-27 15:00:00+00:00,226.49169728121666
2024-12-27 16:00:00+00:00,226.49169728121666
2024-12-27 17:00:00+00:00,226.49169728121666
2024-12-27 18:00:00+00:00,226.49169728121666
2024-12-27 19:00:00+00:00,226.49169728121666
2024-12-27 20:00:00+00:00,226.49169728121666
2024-12-30 14:00:00+00:00,226.49169728121666
2024-12-30 15:00:00+00:00,226.49169728121666
2024-12-30 16:00:00+00:00,226.49169728121666
2024-12-30 17:00:00+00:00,226.49169728121666
2024-12-30 18:00:00+00:00,226.49169728121666
2024-12-30 19:00:00+00:00,226.49169728121666
2024-12-30 20:00:00+00:00,226.49169728121666
2024-12-31 14:00:00+00:00,226.49169728121666
2024-12-31 15:00:00+00:00,226.49169728121666
2024-12-31 16:00:00+00:00,226.49169728121666
2024-12-31 17:00:00+00:00,226.49169728121666
2024-12-31 18:00:00+00:00,226.49169728121666
2024-12-31 19:00:00+00:00,226.49169728121666
2025-01-02 14:00:00+00:00,226.49169728121666
2025-01-02 15:00:00+00:00,226.49169728121666
2025-01-02 16:00:00+00:00,226.49169728121666
2025-01-02 17:00:00+00:00,226.49169728121666
2025-01-02 18:00:00+00:00,226.49169728121666
2025-01-02 19:00:00+00:00,226.49169728121666
2025-01-02 20:00:00+00:00,226.49169728121666
2025-01-03 14:00:00+00:00,226.49169728121666
2025-01-03 15:00:00+00:00,226.49169728121666
2025-01-03 16:00:00+00:00,226.49169728121666
2025-01-03 17:00:00+00:00,226.49169728121666
2025-01-03 18:00:00+00:00,226.49169728121666
2025-01-03 19:00:00+00:00,226.49169728121666
2025-01-03 20:00:00+00:00,226.49169728121666
2025-01-06 14:00:00+00:00,226.49169728121666
2025-01-06 15:00:00+00:00,226.49169728121666
2025-01-06 18:00:00+00:00,226.49169728121666
2025-01-06 19:00:00+00:00,226.49169728121666
2025-01-06 20:00:00+00:00,226.49169728121666
2025-01-07 14:00:00+00:00,226.49169728121666
2025-01-07 15:00:00+00:00,226.49169728121666
2025-01-07 16:00:00+00:00,226.49169728121666
2025-01-07 17:00:00+00:00,226.49169728121666
2025-01-07 18:00:00+00:00,226.49169728121666
2025-01-07 19:00:00+00:00,226.49169728121666
2025-01-07 20:00:00+00:00,226.49169728121666
2025-01-08 14:00:00+00:00,226.49169728121666
2025-01-08 15:00:00+00:00,226.49169728121666
2025-01-08 16:00:00+00:00,226.49169728121666
2025-01-08 17:00:00+00:00,226.49169728121666
2025-01-08 18:00:00+00:00,226.49169728121666
2025-01-08 19:00:00+00:00,226.49169728121666
2025-01-08 20:00:00+00:00,226.49169728121666
2025-01-10 14:00:00+00:00,226.49169728121666
2025-01-10 15:00:00+00:00,226.49169728121666
2025-01-10 16:00:00+00:00,226.49169728121666
2025-01-10 17:00:00+00:00,226.49169728121666
2025-01-10 19:00:00+00:00,226.49169728121666
2025-01-10 20:00:00+00:00,226.49169728121666
2025-01-13 14:00:00+00:00,226.49169728121666
2025-01-13 15:00:00+00:00,226.49169728121666
2025-01-13 16:00:00+00:00,226.49169728121666
2025-01-13 17:00:00+00:00,226.49169728121666
2025-01-13 18:00:00+00:00,226.49169728121666
2025-01-13 19:00:00+00:00,226.49169728121666
2025-01-13 20:00:00+00:00,226.49169728121666
2025-01-14 14:00:00+00:00,226.49169728121666
2025-01-14 15:00:00+00:00,226.49169728121666
2025-01-14 16:00:00+00:00,226.49169728121666
2025-01-14 17:00:00+00:00,226.49169728121666
2025-01-14 18:00:00+00:00,226.49169728121666
2025-01-14 19:00:00+00:00,226.49169728121666
2025-01-14 20:00:00+00:00,226.49169728121666
2025-01-15 14:00:00+00:00,226.49169728121666
2025-01-15 15:00:00+00:00,226.49169728121666
2025-01-15 16:00:00+00:00,226.49169728121666
2025-01-15 18:00:00+00:00,226.49169728121666
2025-01-15 19:00:00+00:00,226.49169728121666
2025-01-15 20:00:00+00:00,226.49169728121666
2025-01-16 14:00:00+00:00,226.49169728121666
2025-01-16 15:00:00+00:00,226.49169728121666
2025-01-16 16:00:00+00:00,226.49169728121666
2025-01-16 17:00:00+00:00,226.49169728121666
2025-01-16 19:00:00+00:00,226.49169728121666
2025-01-16 20:00:00+00:00,226.49169728121666
2025-01-17 14:00:00+00:00,226.49169728121666
2025-01-17 15:00:00+00:00,226.49169728121666
2025-01-17 16:00:00+00:00,226.49169728121666
2025-01-17 18:00:00+00:00,226.49169728121666
2025-01-17 19:00:00+00:00,226.49169728121666
2025-01-17 20:00:00+00:00,226.49169728121666
2025-01-21 14:00:00+00:00,226.49169728121666
2025-01-21 15:00:00+00:00,226.49169728121666
2025-01-21 16:00:00+00:00,226.49169728121666
2025-01-21 17:00:00+00:00,226.49169728121666
2025-01-21 19:00:00+00:00,226.49169728121666
2025-01-21 20:00:00+00:00,226.49169728121666
2025-01-22 14:00:00+00:00,226.49169728121666
2025-01-22 16:00:00+00:00,226.49169728121666
2025-01-22 17:00:00+00:00,226.49169728121666
2025-01-22 19:00:00+00:00,226.49169728121666
2025-01-22 20:00:00+00:00,226.49169728121666
2025-01-23 14:00:00+00:00,226.49169728121666
2025-01-23 15:00:00+00:00,226.49169728121666
2025-01-23 16:00:00+00:00,226.49169728121666
2025-01-23 17:00:00+00:00,226.49169728121666
2025-01-23 18:00:00+00:00,226.49169728121666
2025-01-23 19:00:00+00:00,226.49169728121666
2025-01-23 20:00:00+00:00,226.49169728121666
2025-01-24 14:00:00+00:00,226.49169728121666
2025-01-24 15:00:00+00:00,226.49169728121666
2025-01-24 16:00:00+00:00,226.49169728121666
2025-01-24 17:00:00+00:00,226.49169728121666
2025-01-24 18:00:00+00:00,226.49169728121666
2025-01-24 19:00:00+00:00,226.49169728121666
2025-01-24 20:00:00+00:00,226.49169728121666
2025-01-27 14:00:00+00:00,226.49169728121666
2025-01-27 15:00:00+00:00,226.49169728121666
2025-01-27 16:00:00+00:00,226.49169728121666
2025-01-27 17:00:00+00:00,226.49169728121666
2025-01-27 18:00:00+00:00,226.49169728121666
2025-01-27 19:00:00+00:00,226.49169728121666
2025-01-27 20:00:00+00:00,226.49169728121666
2025-01-28 14:00:00+00:00,226.49169728121666
2025-01-28 15:00:00+00:00,226.49169728121666
2025-01-28 16:00:00+00:00,226.49169728121666
2025-01-28 17:00:00+00:00,226.49169728121666
2025-01-28 18:00:00+00:00,226.49169728121666
2025-01-28 19:00:00+00:00,226.49169728121666
2025-01-29 14:00:00+00:00,226.49169728121666
2025-01-29 15:00:00+00:00,226.49169728121666
2025-01-29 16:00:00+00:00,226.49169728121666
2025-01-29 17:00:00+00:00,226.49169728121666
2025-01-29 18:00:00+00:00,226.49169728121666
2025-01-29 19:00:00+00:00,226.49169728121666
2025-01-29 20:00:00+00:00,226.49169728121666
2025-01-30 14:00:00+00:00,226.49169728121666
2025-01-30 15:00:00+00:00,226.49169728121666
2025-01-30 16:00:00+00:00,226.49169728121666
2025-01-30 18:00:00+00:00,226.49169728121666
2025-01-30 19:00:00+00:00,226.49169728121666
2025-01-30 20:00:00+00:00,226.49169728121666
2025-01-31 14:00:00+00:00,226.49169728121666
2025-01-31 15:00:00+00:00,226.49169728121666
2025-01-31 16:00:00+00:00,226.49169728121666
2025-01-31 17:00:00+00:00,226.49169728121666
2025-01-31 18:00:00+00:00,226.49169728121666
2025-01-31 19:00:00+00:00,226.49169728121666
2025-01-31 20:00:00+00:00,226.49169728121666
2025-02-03 14:00:00+00:00,95.79112586063454
2025-02-03 15:00:00+00:00,77.31717519667203
2025-02-03 16:00:00+00:00,92.96134019846644
2025-02-03 17:00:00+00:00,55.517396080818514
2025-02-03 18:00:00+00:00,57.984306870254066
2025-02-03 19:00:00+00:00,52.5906658748837
2025-02-03 20:00:00+00:00,42.5113031175364
2025-02-04 16:00:00+00:00,71.7418362095343
2025-02-04 18:00:00+00:00,64.31378081904307
2025-02-04 20:00:00+00:00,23.339356128270545
2025-02-05 14:00:00+00:00,27.820772977704575
2025-02-05 15:00:00+00:00,29.257183992139993
2025-02-05 16:00:00+00:00,56.892223125477706
2025-02-05 17:00:00+00:00,58.873246140545476
2025-02-05 19:00:00+00:00,78.29599153235779
2025-02-05 20:00:00+00:00,83.45874246030496
2025-02-06 14:00:00+00:00,140.91804771365796
2025-02-06 15:00:00+00:00,231.4601371523401
2025-02-06 17:00:00+00:00,349.6843385303157
2025-02-06 18:00:00+00:00,311.29705254770715
2025-02-06 19:00:00+00:00,300.08584908117024
2025-02-06 20:00:00+00:00,308.2739073374938
2025-02-07 14:00:00+00:00,312.87090123033937
2025-02-07 15:00:00+00:00,265.7151719820016
2025-02-07 16:00:00+00:00,280.0044417577133
2025-02-07 17:00:00+00:00,282.1738050638824
2025-02-07 19:00:00+00:00,273.62955828909253
2025-02-07 20:00:00+00:00,289.50247180984877
2025-02-10 14:00:00+00:00,296.4985698800236
2025-02-10 15:00:00+00:00,273.49731899888906
2025-02-10 19:00:00+00:00,268.62792265153587
2025-02-10 20:00:00+00:00,247.4111803864173
2025-02-11 14:00:00+00:00,260.62157826224234
2025-02-11 16:00:00+00:00,286.59240385070507
2025-02-11 17:00:00+00:00,275.91807397250255
2025-02-11 19:00:00+00:00,243.44281578218533
2025-02-11 20:00:00+00:00,263.3264561319827
2025-02-12 14:00:00+00:00,208.35234695902108
2025-02-12 15:00:00+00:00,189.36122121334543
2025-02-12 16:00:00+00:00,243.87801076215143
2025-02-12 17:00:00+00:00,268.21135808328467
2025-02-12 18:00:00+00:00,292.4026168609051
2025-02-12 19:00:00+00:00,275.97023125972134
2025-02-12 20:00:00+00:00,277.3290490283224
2025-02-13 14:00:00+00:00,395.3820059679348
2025-02-13 15:00:00+00:00,400.7187651459931
2025-02-13 16:00:00+00:00,405.19910645394225
2025-02-13 17:00:00+00:00,412.7403043215952
2025-02-13 18:00:00+00:00,414.48269885694276
2025-02-13 19:00:00+00:00,420.08503162076784
2025-02-13 20:00:00+00:00,421.82466234436924
2025-02-14 14:00:00+00:00,433.62489668645765
2025-02-14 15:00:00+00:00,416.14561308288785
2025-02-14 16:00:00+00:00,427.76903853572946
2025-02-14 17:00:00+00:00,430.1643943781151
2025-02-14 18:00:00+00:00,431.58879402107635
2025-02-14 19:00:00+00:00,444.60137073234034
2025-02-14 20:00:00+00:00,426.6347348615856
2025-02-18 14:00:00+00:00,452.78564382633255
2025-02-18 15:00:00+00:00,475.90301925355936
2025-02-18 16:00:00+00:00,475.90301925355936
2025-02-18 17:00:00+00:00,475.90301925355936
2025-02-18 18:00:00+00:00,475.90301925355936
2025-02-18 19:00:00+00:00,475.90301925355936
2025-02-18 20:00:00+00:00,475.90301925355936
2025-02-19 14:00:00+00:00,475.90301925355936
2025-02-19 15:00:00+00:00,475.90301925355936
2025-02-19 16:00:00+00:00,475.90301925355936
2025-02-19 17:00:00+00:00,475.90301925355936
2025-02-19 18:00:00+00:00,475.90301925355936
2025-02-19 19:00:00+00:00,475.90301925355936
2025-02-19 20:00:00+00:00,475.90301925355936
2025-02-20 14:00:00+00:00,475.90301925355936
2025-02-20 15:00:00+00:00,475.90301925355936
2025-02-20 16:00:00+00:00,475.90301925355936
2025-02-20 17:00:00+00:00,475.90301925355936
2025-02-20 18:00:00+00:00,475.90301925355936
2025-02-20 19:00:00+00:00,475.90301925355936
2025-02-21 14:00:00+00:00,475.90301925355936
2025-02-21 15:00:00+00:00,475.90301925355936
2025-02-21 16:00:00+00:00,475.90301925355936
2025-02-21 17:00:00+00:00,475.90301925355936
2025-02-21 18:00:00+00:00,475.90301925355936
2025-02-21 19:00:00+00:00,475.90301925355936
2025-02-21 20:00:00+00:00,475.90301925355936
2025-02-24 14:00:00+00:00,475.90301925355936
2025-02-24 15:00:00+00:00,475.90301925355936
2025-02-24 16:00:00+00:00,475.90301925355936
2025-02-24 17:00:00+00:00,475.90301925355936
2025-02-24 18:00:00+00:00,475.90301925355936
2025-02-24 19:00:00+00:00,475.90301925355936
2025-02-24 20:00:00+00:00,475.90301925355936
2025-02-25 14:00:00+00:00,475.90301925355936
2025-02-25 15:00:00+00:00,475.90301925355936
2025-02-25 16:00:00+00:00,475.90301925355936
2025-02-25 17:00:00+00:00,475.90301925355936
2025-02-25 18:00:00+00:00,475.90301925355936
2025-02-25 19:00:00+00:00,475.90301925355936
2025-02-25 20:00:00+00:00,475.90301925355936
2025-02-26 14:00:00+00:00,475.90301925355936
2025-02-26 15:00:00+00:00,475.90301925355936
2025-02-26 16:00:00+00:00,475.90301925355936
2025-02-26 17:00:00+00:00,475.90301925355936
2025-02-26 18:00:00+00:00,475.90301925355936
2025-02-26 19:00:00+00:00,475.90301925355936
2025-02-26 20:00:00+00:00,475.90301925355936
2025-02-27 14:00:00+00:00,475.90301925355936
2025-02-27 15:00:00+00:00,475.90301925355936
2025-02-27 16:00:00+00:00,475.90301925355936
2025-02-27 17:00:00+00:00,475.90301925355936
2025-02-27 18:00:00+00:00,475.90301925355936
2025-02-27 19:00:00+00:00,475.90301925355936
2025-02-27 20:00:00+00:00,475.90301925355936
2025-02-28 14:00:00+00:00,475.90301925355936
2025-02-28 15:00:00+00:00,475.90301925355936
2025-02-28 16:00:00+00:00,475.90301925355936
2025-02-28 17:00:00+00:00,475.90301925355936
2025-02-28 18:00:00+00:00,475.90301925355936
2025-02-28 19:00:00+00:00,475.90301925355936
2025-02-28 20:00:00+00:00,475.90301925355936
2025-03-03 14:00:00+00:00,475.90301925355936
2025-03-03 15:00:00+00:00,475.90301925355936
2025-03-03 16:00:00+00:00,475.90301925355936
2025-03-03 17:00:00+00:00,475.90301925355936
2025-03-03 18:00:00+00:00,475.90301925355936
2025-03-03 19:00:00+00:00,475.90301925355936
2025-03-03 20:00:00+00:00,475.90301925355936
2025-03-04 14:00:00+00:00,475.90301925355936
2025-03-04 15:00:00+00:00,475.90301925355936
2025-03-04 16:00:00+00:00,475.90301925355936
2025-03-04 17:00:00+00:00,475.90301925355936
2025-03-04 18:00:00+00:00,475.90301925355936
2025-03-04 19:00:00+00:00,475.90301925355936
2025-03-04 20:00:00+00:00,402.1915221569592
2025-03-05 14:00:00+00:00,494.21162760192715
2025-03-05 15:00:00+00:00,445.0348951277781
2025-03-05 16:00:00+00:00,498.9131604999852
2025-03-05 17:00:00+00:00,569.0815322262091
2025-03-05 18:00:00+00:00,647.1441749392567
2025-03-05 19:00:00+00:00,697.1754007800965
2025-03-05 20:00:00+00:00,657.509695894516
2025-03-06 14:00:00+00:00,708.0022047006371
2025-03-06 15:00:00+00:00,712.5045986311479
2025-03-06 16:00:00+00:00,687.5988640493267
2025-03-06 17:00:00+00:00,709.0894629882429
2025-03-06 18:00:00+00:00,708.7118948339438
2025-03-06 19:00:00+00:00,751.5299310159759
2025-03-06 20:00:00+00:00,751.5299310159759
2025-03-07 14:00:00+00:00,751.5299310159759
2025-03-07 15:00:00+00:00,751.5299310159759
2025-03-07 17:00:00+00:00,751.5299310159759
2025-03-07 18:00:00+00:00,751.5299310159759
2025-03-07 19:00:00+00:00,751.5299310159759
2025-03-07 20:00:00+00:00,751.5299310159759
2025-03-10 13:00:00+00:00,751.5299310159759
2025-03-10 14:00:00+00:00,751.5299310159759
2025-03-10 15:00:00+00:00,751.5299310159759
2025-03-10 16:00:00+00:00,751.5299310159759
2025-03-10 17:00:00+00:00,751.5299310159759
2025-03-10 18:00:00+00:00,751.5299310159759
2025-03-10 19:00:00+00:00,751.5299310159759
2025-03-11 13:00:00+00:00,751.5299310159759
2025-03-11 14:00:00+00:00,751.5299310159759
2025-03-11 15:00:00+00:00,751.5299310159759
2025-03-11 16:00:00+00:00,751.5299310159759
2025-03-11 17:00:00+00:00,751.5299310159759
2025-03-11 18:00:00+00:00,751.5299310159759
2025-03-11 19:00:00+00:00,751.5299310159759
2025-03-12 13:00:00+00:00,751.5299310159759
2025-03-12 14:00:00+00:00,751.5299310159759
2025-03-12 15:00:00+00:00,751.5299310159759
2025-03-12 16:00:00+00:00,751.5299310159759
2025-03-12 17:00:00+00:00,751.5299310159759
2025-03-12 18:00:00+00:00,751.5299310159759
2025-03-12 19:00:00+00:00,751.5299310159759
2025-03-13 13:00:00+00:00,751.5299310159759
2025-03-13 14:00:00+00:00,751.5299310159759
2025-03-13 15:00:00+00:00,751.5299310159759
2025-03-13 17:00:00+00:00,751.5299310159759
2025-03-13 18:00:00+00:00,751.5299310159759
2025-03-13 19:00:00+00:00,751.5299310159759
2025-03-14 13:00:00+00:00,751.5299310159759
2025-03-14 14:00:00+00:00,751.5299310159759
2025-03-14 15:00:00+00:00,751.5299310159759
2025-03-14 16:00:00+00:00,751.5299310159759
2025-03-14 17:00:00+00:00,751.5299310159759
2025-03-14 18:00:00+00:00,751.5299310159759
2025-03-14 19:00:00+00:00,751.5299310159759
2025-03-17 13:00:00+00:00,751.5299310159759
2025-03-17 14:00:00+00:00,751.5299310159759
2025-03-17 15:00:00+00:00,751.5299310159759
2025-03-17 16:00:00+00:00,751.5299310159759
2025-03-17 17:00:00+00:00,751.5299310159759
2025-03-17 18:00:00+00:00,751.5299310159759
2025-03-17 19:00:00+00:00,751.5299310159759
2025-03-18 13:00:00+00:00,751.5299310159759
2025-03-18 14:00:00+00:00,751.5299310159759
2025-03-18 15:00:00+00:00,751.5299310159759
2025-03-18 16:00:00+00:00,751.5299310159759
2025-03-18 17:00:00+00:00,751.5299310159759
2025-03-18 18:00:00+00:00,751.5299310159759
2025-03-18 19:00:00+00:00,751.5299310159759
2025-03-19 13:00:00+00:00,751.5299310159759
2025-03-19 14:00:00+00:00,751.5299310159759
2025-03-19 15:00:00+00:00,751.5299310159759
2025-03-19 16:00:00+00:00,751.5299310159759
2025-03-19 17:00:00+00:00,751.5299310159759
2025-03-19 18:00:00+00:00,751.5299310159759
2025-03-19 19:00:00+00:00,751.5299310159759
2025-03-20 13:00:00+00:00,751.5299310159759
2025-03-20 14:00:00+00:00,751.5299310159759
2025-03-20 15:00:00+00:00,751.5299310159759
2025-03-20 16:00:00+00:00,751.5299310159759
2025-03-20 17:00:00+00:00,751.5299310159759
2025-03-20 18:00:00+00:00,751.5299310159759
2025-03-20 19:00:00+00:00,751.5299310159759
2025-03-21 13:00:00+00:00,751.5299310159759
2025-03-21 14:00:00+00:00,751.5299310159759
2025-03-21 15:00:00+00:00,751.5299310159759
2025-03-21 16:00:00+00:00,751.5299310159759
2025-03-21 17:00:00+00:00,751.5299310159759
2025-03-21 18:00:00+00:00,751.5299310159759
2025-03-21 19:00:00+00:00,751.5299310159759
2025-03-24 13:00:00+00:00,751.5299310159759
2025-03-24 14:00:00+00:00,751.5299310159759
2025-03-24 15:00:00+00:00,751.5299310159759
2025-03-24 16:00:00+00:00,751.5299310159759
2025-03-24 17:00:00+00:00,751.5299310159759
2025-03-24 18:00:00+00:00,751.5299310159759
2025-03-24 19:00:00+00:00,751.5299310159759
2025-03-25 13:00:00+00:00,751.5299310159759
2025-03-25 14:00:00+00:00,751.5299310159759
2025-03-25 15:00:00+00:00,751.5299310159759
2025-03-25 16:00:00+00:00,751.5299310159759
2025-03-25 17:00:00+00:00,751.5299310159759
2025-03-25 18:00:00+00:00,751.5299310159759
2025-03-25 19:00:00+00:00,751.5299310159759
2025-03-26 13:00:00+00:00,751.5299310159759
2025-03-26 14:00:00+00:00,751.5299310159759
2025-03-26 15:00:00+00:00,751.5299310159759
2025-03-26 16:00:00+00:00,751.5299310159759
2025-03-26 17:00:00+00:00,751.5299310159759
2025-03-26 18:00:00+00:00,751.5299310159759
2025-03-26 19:00:00+00:00,751.5299310159759
2025-03-27 13:00:00+00:00,443.0985013962065
2025-03-27 14:00:00+00:00,446.665998277606
2025-03-27 15:00:00+00:00,405.48947571029817
2025-03-27 16:00:00+00:00,368.6702185054052
2025-03-27 17:00:00+00:00,390.5067746688718
2025-03-27 18:00:00+00:00,470.80334153223725
2025-03-27 19:00:00+00:00,498.57941931769693
2025-03-28 13:00:00+00:00,545.2310895210785
2025-03-28 14:00:00+00:00,536.192576085353
2025-03-28 15:00:00+00:00,537.8142120056783
2025-03-28 16:00:00+00:00,483.9011547155957
2025-03-28 17:00:00+00:00,485.82304575123635
2025-03-28 18:00:00+00:00,501.1154389803321
2025-03-28 19:00:00+00:00,503.01945670207016
2025-03-31 13:00:00+00:00,449.0741304699118
2025-03-31 14:00:00+00:00,460.768892028858
2025-03-31 15:00:00+00:00,460.95198541592515
2025-03-31 16:00:00+00:00,465.3389878900356
2025-03-31 17:00:00+00:00,498.53807412717043
2025-03-31 18:00:00+00:00,542.8205808456003
2025-03-31 19:00:00+00:00,581.0345404159948
2025-04-01 13:00:00+00:00,522.1559245745586
2025-04-01 14:00:00+00:00,558.5290105326974
2025-04-01 15:00:00+00:00,546.1664133096302
2025-04-01 16:00:00+00:00,526.2427087865066
2025-04-01 17:00:00+00:00,514.5611545577561
2025-04-01 18:00:00+00:00,540.8342701682676
2025-04-01 19:00:00+00:00,564.2812708327261
2025-04-02 13:00:00+00:00,527.7724964364228
2025-04-02 14:00:00+00:00,536.8810592236043
2025-04-02 16:00:00+00:00,567.4578023841111
2025-04-02 17:00:00+00:00,544.2011801550428
2025-04-02 18:00:00+00:00,556.4962096147713
2025-04-02 19:00:00+00:00,593.3353739151391
2025-04-03 13:00:00+00:00,336.95604679966414
2025-04-03 14:00:00+00:00,329.1822280881215
2025-04-03 15:00:00+00:00,388.90579961178867
2025-04-03 16:00:00+00:00,362.51812210360686
2025-04-03 17:00:00+00:00,293.7544191773234
2025-04-03 18:00:00+00:00,299.0760050613291
2025-04-03 19:00:00+00:00,280.0304897333874
2025-04-04 13:00:00+00:00,35.026401972970405
2025-04-04 14:00:00+00:00,67.85592412199026
2025-04-04 15:00:00+00:00,58.60507823630897
2025-04-04 16:00:00+00:00,113.09641066689696
2025-04-04 17:00:00+00:00,96.34627811810941
2025-04-04 18:00:00+00:00,132.92444700212613
2025-04-04 19:00:00+00:00,88.7779224650903
2025-04-07 13:00:00+00:00,33.08716707087214
2025-04-07 14:00:00+00:00,-11.033684355539222
2025-04-07 15:00:00+00:00,47.54631247509852
2025-04-07 16:00:00+00:00,80.59670842056771
2025-04-07 17:00:00+00:00,48.80115846753846
2025-04-07 18:00:00+00:00,28.53773207293757
2025-04-07 19:00:00+00:00,39.6942317848757
2025-04-08 13:00:00+00:00,2.308854055642726
2025-04-08 14:00:00+00:00,-40.814667528446485
2025-04-08 15:00:00+00:00,-38.3354530339177
2025-04-08 16:00:00+00:00,-74.58332057701463
2025-04-08 17:00:00+00:00,-109.85209241559443
2025-04-08 18:00:00+00:00,-172.84893393698218
2025-04-08 19:00:00+00:00,-159.1900772791558
2025-04-09 13:00:00+00:00,-80.0056236901233
2025-04-09 14:00:00+00:00,-65.0470630107325
2025-04-09 15:00:00+00:00,-43.696387180030555
2025-04-09 16:00:00+00:00,133.9819738867613
2025-04-09 17:00:00+00:00,329.1944336336293
2025-04-09 18:00:00+00:00,304.1575066494918
2025-04-09 19:00:00+00:00,352.6155539273975
2025-04-10 13:00:00+00:00,139.19821159804894
2025-04-10 14:00:00+00:00,99.84845958693704
2025-04-10 15:00:00+00:00,13.870782977556757
2025-04-10 16:00:00+00:00,51.23956267350166
2025-04-10 17:00:00+00:00,133.81255294828276
2025-04-10 18:00:00+00:00,118.65984354597087
2025-04-10 19:00:00+00:00,118.40833691196455
2025-04-11 13:00:00+00:00,51.148852458800704
2025-04-11 14:00:00+00:00,74.11539702356686
2025-04-11 15:00:00+00:00,120.79460193352637
2025-04-11 16:00:00+00:00,141.50583567939836
2025-04-11 17:00:00+00:00,185.75662405703227
2025-04-11 18:00:00+00:00,188.20028170113054
2025-04-11 19:00:00+00:00,190.54237712967154
2025-04-14 13:00:00+00:00,281.80470469727675
2025-04-14 14:00:00+00:00,250.0687340725836
2025-04-14 15:00:00+00:00,241.85856014817023
2025-04-14 16:00:00+00:00,237.06089072526692
2025-04-14 17:00:00+00:00,221.9766988643819
2025-04-14 18:00:00+00:00,245.10980703471816
2025-04-14 19:00:00+00:00,230.68268824271806
2025-04-15 13:00:00+00:00,142.8012864837111
2025-04-15 14:00:00+00:00,158.0374871600413
2025-04-15 15:00:00+00:00,160.8381062203465
2025-04-15 16:00:00+00:00,154.71251157436004
2025-04-15 17:00:00+00:00,137.20978574983653
2025-04-15 18:00:00+00:00,146.54564658927978
2025-04-15 19:00:00+00:00,142.5826519455315
2025-04-16 13:00:00+00:00,103.07487767534207
2025-04-16 14:00:00+00:00,196.43032586786398
2025-04-16 15:00:00+00:00,145.70597450859708
2025-04-16 17:00:00+00:00,113.2588763430982
2025-04-16 18:00:00+00:00,79.93959849852983
2025-04-16 19:00:00+00:00,121.0425437863856
2025-04-17 13:00:00+00:00,155.5157799576862
2025-04-17 14:00:00+00:00,173.15056118743524
2025-04-17 15:00:00+00:00,145.5076768629111
2025-04-17 16:00:00+00:00,148.91338122738856
2025-04-17 17:00:00+00:00,165.99967291685348
2025-04-17 18:00:00+00:00,146.27480094137485
2025-04-17 19:00:00+00:00,157.6563055315046
2025-04-21 13:00:00+00:00,122.50145795561535
2025-04-21 14:00:00+00:00,82.23262147501048
2025-04-21 15:00:00+00:00,90.92927888593479
2025-04-21 16:00:00+00:00,98.17439191009994
2025-04-21 17:00:00+00:00,130.5899092113008
2025-04-21 18:00:00+00:00,100.37895731926477
2025-04-21 19:00:00+00:00,119.4012431004312
2025-04-22 13:00:00+00:00,166.88485444942592
2025-04-22 14:00:00+00:00,192.61512946345658
2025-04-22 15:00:00+00:00,234.8938319969976
2025-04-22 16:00:00+00:00,185.2818012018214
2025-04-22 17:00:00+00:00,202.30494878180593
2025-04-22 18:00:00+00:00,205.406266949222
2025-04-22 19:00:00+00:00,205.32598990449267
2025-04-23 13:00:00+00:00,313.7683219480565
2025-04-23 14:00:00+00:00,266.1488306024825
2025-04-23 15:00:00+00:00,174.81178769971532
2025-04-23 16:00:00+00:00,186.31054111351094
2025-04-23 17:00:00+00:00,171.2885616575962
2025-04-23 18:00:00+00:00,143.0865796702554
2025-04-23 19:00:00+00:00,156.27751640463742
2025-04-24 13:00:00+00:00,205.46438425109596
2025-04-24 14:00:00+00:00,225.5053007447306
2025-04-24 16:00:00+00:00,253.35659191416107
2025-04-24 17:00:00+00:00,258.95336178548973
2025-04-24 18:00:00+00:00,272.70346355997515
2025-04-24 19:00:00+00:00,277.85242608003455
2025-04-25 13:00:00+00:00,209.127655007954
2025-04-25 14:00:00+00:00,197.60063967368174
2025-04-25 15:00:00+00:00,196.46857292741507
2025-04-25 16:00:00+00:00,193.3932584670021
2025-04-25 17:00:00+00:00,188.02729751328096
2025-04-25 18:00:00+00:00,186.23746188286677
2025-04-25 19:00:00+00:00,192.77442700314958
2025-04-28 13:00:00+00:00,218.87202684702737
2025-04-28 14:00:00+00:00,216.39117624798166
2025-04-28 15:00:00+00:00,212.74896403142108
2025-04-28 16:00:00+00:00,178.87926796993747
2025-04-28 17:00:00+00:00,216.56796754682506
2025-04-28 18:00:00+00:00,217.22104850788267
2025-04-28 19:00:00+00:00,217.35246689038536
2025-04-29 13:00:00+00:00,199.9087172404442
2025-04-29 14:00:00+00:00,249.0740418869072
2025-04-29 15:00:00+00:00,231.1392478716913
2025-04-29 16:00:00+00:00,233.46228154953675
2025-04-29 17:00:00+00:00,228.708539528624
2025-04-29 19:00:00+00:00,218.37764202092592
2025-04-30 13:00:00+00:00,505.3149746557799
2025-04-30 14:00:00+00:00,478.4695546751651
2025-04-30 15:00:00+00:00,471.6518438579883
2025-04-30 16:00:00+00:00,519.1481276352225
2025-04-30 17:00:00+00:00,519.2628077753515
2025-04-30 18:00:00+00:00,499.3112077217457
2025-05-01 13:00:00+00:00,607.3014411725167
2025-05-01 14:00:00+00:00,588.7484008376738
2025-05-01 15:00:00+00:00,560.6602041391058
2025-05-01 16:00:00+00:00,571.652672075854
2025-05-01 17:00:00+00:00,553.9536455340638
2025-05-01 18:00:00+00:00,571.3510231858692
2025-05-01 19:00:00+00:00,534.7352645123271
2025-05-02 13:00:00+00:00,605.7026371219122
2025-05-02 14:00:00+00:00,590.3413325970713
2025-05-02 15:00:00+00:00,634.5906060351102
2025-05-02 16:00:00+00:00,634.5906060351102
2025-05-02 17:00:00+00:00,634.5906060351102
2025-05-02 18:00:00+00:00,634.5906060351102
2025-05-02 19:00:00+00:00,634.5906060351102
2025-05-05 13:00:00+00:00,634.5906060351102
2025-05-05 14:00:00+00:00,634.5906060351102
2025-05-05 15:00:00+00:00,634.5906060351102
2025-05-05 16:00:00+00:00,634.5906060351102
2025-05-05 17:00:00+00:00,634.5906060351102
2025-05-05 18:00:00+00:00,634.5906060351102
2025-05-05 19:00:00+00:00,634.5906060351102
2025-05-06 13:00:00+00:00,634.5906060351102
2025-05-06 14:00:00+00:00,634.5906060351102
2025-05-06 15:00:00+00:00,634.5906060351102
2025-05-06 16:00:00+00:00,634.5906060351102
2025-05-06 17:00:00+00:00,634.5906060351102
2025-05-06 18:00:00+00:00,634.5906060351102
2025-05-06 19:00:00+00:00,634.5906060351102
2025-05-07 13:00:00+00:00,634.5906060351102
2025-05-07 15:00:00+00:00,634.5906060351102
2025-05-07 17:00:00+00:00,634.5906060351102
2025-05-07 18:00:00+00:00,634.5906060351102
2025-05-07 19:00:00+00:00,634.5906060351102
2025-05-08 13:00:00+00:00,634.5906060351102
2025-05-08 14:00:00+00:00,634.5906060351102
2025-05-08 15:00:00+00:00,634.5906060351102
2025-05-08 16:00:00+00:00,634.5906060351102
2025-05-08 17:00:00+00:00,634.5906060351102
2025-05-08 18:00:00+00:00,634.5906060351102
2025-05-08 19:00:00+00:00,634.5906060351102
2025-05-09 13:00:00+00:00,634.5906060351102
2025-05-09 14:00:00+00:00,634.5906060351102
2025-05-09 15:00:00+00:00,634.5906060351102
2025-05-09 16:00:00+00:00,634.5906060351102
2025-05-09 17:00:00+00:00,634.5906060351102
2025-05-09 18:00:00+00:00,634.5906060351102
2025-05-09 19:00:00+00:00,634.5906060351102
2025-05-12 13:00:00+00:00,634.5906060351102
2025-05-12 14:00:00+00:00,634.5906060351102
2025-05-12 15:00:00+00:00,634.5906060351102
2025-05-12 16:00:00+00:00,634.5906060351102
2025-05-12 17:00:00+00:00,634.5906060351102
2025-05-12 18:00:00+00:00,634.5906060351102
2025-05-12 19:00:00+00:00,634.5906060351102
2025-05-13 13:00:00+00:00,634.5906060351102
2025-05-13 14:00:00+00:00,634.5906060351102
2025-05-13 15:00:00+00:00,634.5906060351102
2025-05-13 17:00:00+00:00,634.5906060351102
2025-05-13 18:00:00+00:00,634.5906060351102
2025-05-13 19:00:00+00:00,634.5906060351102
2025-05-14 13:00:00+00:00,634.5906060351102
2025-05-14 14:00:00+00:00,634.5906060351102
2025-05-14 15:00:00+00:00,634.5906060351102
2025-05-14 16:00:00+00:00,634.5906060351102
2025-05-14 17:00:00+00:00,634.5906060351102
2025-05-14 18:00:00+00:00,634.5906060351102
2025-05-14 19:00:00+00:00,634.5906060351102
2025-05-15 13:00:00+00:00,634.5906060351102
2025-05-15 14:00:00+00:00,634.5906060351102
2025-05-15 15:00:00+00:00,634.5906060351102
2025-05-15 16:00:00+00:00,634.5906060351102
2025-05-15 17:00:00+00:00,634.5906060351102
2025-05-15 18:00:00+00:00,634.5906060351102
2025-05-15 19:00:00+00:00,634.5906060351102
2025-05-16 13:00:00+00:00,634.5906060351102
2025-05-16 14:00:00+00:00,634.5906060351102
2025-05-16 15:00:00+00:00,634.5906060351102
2025-05-16 16:00:00+00:00,634.5906060351102
2025-05-16 17:00:00+00:00,634.5906060351102
2025-05-16 18:00:00+00:00,634.5906060351102
2025-05-16 19:00:00+00:00,634.5906060351102
2025-05-19 13:00:00+00:00,634.5906060351102
2025-05-19 14:00:00+00:00,634.5906060351102
2025-05-19 15:00:00+00:00,634.5906060351102
2025-05-19 16:00:00+00:00,634.5906060351102
2025-05-19 17:00:00+00:00,634.5906060351102
2025-05-19 18:00:00+00:00,634.5906060351102
2025-05-19 19:00:00+00:00,634.5906060351102
2025-05-20 13:00:00+00:00,634.5906060351102
2025-05-20 14:00:00+00:00,634.5906060351102
2025-05-20 15:00:00+00:00,634.5906060351102
2025-05-20 16:00:00+00:00,634.5906060351102
2025-05-20 17:00:00+00:00,634.5906060351102
2025-05-20 18:00:00+00:00,634.5906060351102
2025-05-20 19:00:00+00:00,634.5906060351102
2025-05-21 13:00:00+00:00,634.5906060351102
2025-05-21 14:00:00+00:00,634.5906060351102
2025-05-21 15:00:00+00:00,634.5906060351102
2025-05-21 16:00:00+00:00,634.5906060351102
2025-05-21 17:00:00+00:00,634.5906060351102
2025-05-21 18:00:00+00:00,634.5906060351102
2025-05-21 19:00:00+00:00,634.5906060351102
2025-05-22 13:00:00+00:00,634.5906060351102
2025-05-22 14:00:00+00:00,634.5906060351102
2025-05-22 16:00:00+00:00,634.5906060351102
2025-05-22 17:00:00+00:00,634.5906060351102
2025-05-22 18:00:00+00:00,634.5906060351102
2025-05-22 19:00:00+00:00,634.5906060351102
2025-05-23 13:00:00+00:00,634.5906060351102
2025-05-23 14:00:00+00:00,634.5906060351102
2025-05-23 15:00:00+00:00,634.5906060351102
2025-05-23 16:00:00+00:00,634.5906060351102
2025-05-23 17:00:00+00:00,634.5906060351102
2025-05-23 18:00:00+00:00,634.5906060351102
2025-05-23 19:00:00+00:00,634.5906060351102
2025-05-27 13:00:00+00:00,634.5906060351102
2025-05-27 14:00:00+00:00,634.5906060351102
2025-05-27 15:00:00+00:00,634.5906060351102
2025-05-27 16:00:00+00:00,634.5906060351102
2025-05-27 17:00:00+00:00,634.5906060351102
2025-05-27 18:00:00+00:00,634.5906060351102
2025-05-27 19:00:00+00:00,634.5906060351102
2025-05-28 13:00:00+00:00,634.5906060351102
2025-05-28 14:00:00+00:00,634.5906060351102
2025-05-28 15:00:00+00:00,634.5906060351102
2025-05-28 16:00:00+00:00,634.5906060351102
2025-05-28 17:00:00+00:00,634.5906060351102
2025-05-28 18:00:00+00:00,634.5906060351102
2025-05-28 19:00:00+00:00,634.5906060351102
2025-05-29 13:00:00+00:00,634.5906060351102
2025-05-29 14:00:00+00:00,634.5906060351102
2025-05-29 15:00:00+00:00,634.5906060351102
2025-05-29 16:00:00+00:00,634.5906060351102
2025-05-29 17:00:00+00:00,634.5906060351102
2025-05-29 18:00:00+00:00,634.5906060351102
2025-05-29 19:00:00+00:00,634.5906060351102
2025-05-30 13:00:00+00:00,634.5906060351102
2025-05-30 14:00:00+00:00,634.5906060351102
2025-05-30 15:00:00+00:00,634.5906060351102
2025-05-30 16:00:00+00:00,634.5906060351102
2025-05-30 17:00:00+00:00,634.5906060351102
2025-05-30 18:00:00+00:00,634.5906060351102
2025-05-30 19:00:00+00:00,634.5906060351102
2025-06-02 13:00:00+00:00,634.5906060351102
2025-06-02 14:00:00+00:00,634.5906060351102
2025-06-02 15:00:00+00:00,634.5906060351102
2025-06-02 16:00:00+00:00,634.5906060351102
2025-06-02 17:00:00+00:00,634.5906060351102
2025-06-02 18:00:00+00:00,634.5906060351102
2025-06-02 19:00:00+00:00,634.5906060351102
2025-06-03 13:00:00+00:00,634.5906060351102
2025-06-03 14:00:00+00:00,634.5906060351102
2025-06-03 15:00:00+00:00,634.5906060351102
2025-06-03 16:00:00+00:00,634.5906060351102
2025-06-03 17:00:00+00:00,634.5906060351102
2025-06-03 18:00:00+00:00,634.5906060351102
2025-06-03 19:00:00+00:00,634.5906060351102
2025-06-04 13:00:00+00:00,634.5906060351102
2025-06-04 14:00:00+00:00,634.5906060351102
2025-06-04 15:00:00+00:00,634.5906060351102
2025-06-04 16:00:00+00:00,634.5906060351102
2025-06-04 17:00:00+00:00,634.5906060351102
2025-06-04 18:00:00+00:00,634.5906060351102
2025-06-04 19:00:00+00:00,634.5906060351102
2025-06-05 13:00:00+00:00,634.5906060351102
2025-06-05 14:00:00+00:00,634.5906060351102
2025-06-05 15:00:00+00:00,634.5906060351102
2025-06-05 16:00:00+00:00,634.5906060351102
2025-06-05 17:00:00+00:00,634.5906060351102
2025-06-05 18:00:00+00:00,634.5906060351102
2025-06-05 19:00:00+00:00,634.5906060351102
2025-06-06 13:00:00+00:00,634.5906060351102
2025-06-06 14:00:00+00:00,634.5906060351102
2025-06-06 15:00:00+00:00,634.5906060351102
2025-06-06 16:00:00+00:00,634.5906060351102
2025-06-06 17:00:00+00:00,634.5906060351102
2025-06-06 18:00:00+00:00,634.5906060351102
2025-06-06 19:00:00+00:00,634.5906060351102
2025-06-09 13:00:00+00:00,634.5906060351102
2025-06-09 14:00:00+00:00,634.5906060351102
2025-06-09 15:00:00+00:00,634.5906060351102
2025-06-09 16:00:00+00:00,634.5906060351102
2025-06-09 17:00:00+00:00,634.5906060351102
2025-06-09 18:00:00+00:00,634.5906060351102
2025-06-09 19:00:00+00:00,634.5906060351102
2025-06-10 13:00:00+00:00,634.5906060351102
2025-06-10 14:00:00+00:00,634.5906060351102
2025-06-10 15:00:00+00:00,634.5906060351102
2025-06-10 16:00:00+00:00,634.5906060351102
2025-06-10 17:00:00+00:00,634.5906060351102
2025-06-10 18:00:00+00:00,634.5906060351102
2025-06-10 19:00:00+00:00,634.5906060351102
2025-06-11 13:00:00+00:00,634.5906060351102
2025-06-11 14:00:00+00:00,634.5906060351102
2025-06-11 15:00:00+00:00,634.5906060351102
2025-06-11 16:00:00+00:00,634.5906060351102
2025-06-11 18:00:00+00:00,634.5906060351102
2025-06-11 19:00:00+00:00,634.5906060351102
2025-06-12 13:00:00+00:00,634.5906060351102
2025-06-12 14:00:00+00:00,634.5906060351102
2025-06-12 15:00:00+00:00,634.5906060351102
2025-06-12 17:00:00+00:00,634.5906060351102
2025-06-12 18:00:00+00:00,634.5906060351102
2025-06-12 19:00:00+00:00,634.5906060351102
2025-06-13 13:00:00+00:00,634.5906060351102
2025-06-13 14:00:00+00:00,634.5906060351102
2025-06-13 15:00:00+00:00,634.5906060351102
2025-06-13 16:00:00+00:00,634.5906060351102
2025-06-13 17:00:00+00:00,634.5906060351102
2025-06-13 18:00:00+00:00,634.5906060351102
2025-06-13 19:00:00+00:00,634.5906060351102
2025-06-16 13:00:00+00:00,634.5906060351102
2025-06-16 14:00:00+00:00,634.5906060351102
2025-06-16 15:00:00+00:00,634.5906060351102
2025-06-16 16:00:00+00:00,634.5906060351102
2025-06-16 17:00:00+00:00,634.5906060351102
2025-06-16 18:00:00+00:00,634.5906060351102
2025-06-16 19:00:00+00:00,634.5906060351102
2025-06-17 13:00:00+00:00,634.5906060351102
2025-06-17 14:00:00+00:00,634.5906060351102
2025-06-17 15:00:00+00:00,634.5906060351102
2025-06-17 16:00:00+00:00,634.5906060351102
2025-06-17 17:00:00+00:00,634.5906060351102
2025-06-17 18:00:00+00:00,634.5906060351102
2025-06-17 19:00:00+00:00,634.5906060351102
2025-06-18 13:00:00+00:00,634.5906060351102
2025-06-18 15:00:00+00:00,634.5906060351102
2025-06-18 17:00:00+00:00,634.5906060351102
2025-06-18 18:00:00+00:00,634.5906060351102
2025-06-18 19:00:00+00:00,634.5906060351102
2025-06-20 13:00:00+00:00,634.5906060351102
2025-06-20 14:00:00+00:00,634.5906060351102
2025-06-20 15:00:00+00:00,634.5906060351102
2025-06-20 16:00:00+00:00,634.5906060351102
2025-06-20 18:00:00+00:00,634.5906060351102
2025-06-20 19:00:00+00:00,634.5906060351102
2025-06-23 13:00:00+00:00,634.5906060351102
2025-06-23 14:00:00+00:00,634.5906060351102
2025-06-23 16:00:00+00:00,634.5906060351102
2025-06-23 17:00:00+00:00,634.5906060351102
2025-06-23 19:00:00+00:00,634.5906060351102
2025-06-24 13:00:00+00:00,634.5906060351102
2025-06-24 14:00:00+00:00,634.5906060351102
2025-06-25 13:00:00+00:00,634.5906060351102
2025-06-25 14:00:00+00:00,634.5906060351102
2025-06-25 15:00:00+00:00,634.5906060351102
2025-06-25 16:00:00+00:00,634.5906060351102
2025-06-25 17:00:00+00:00,634.5906060351102
2025-06-25 19:00:00+00:00,634.5906060351102
2025-06-26 13:00:00+00:00,634.5906060351102
2025-06-26 14:00:00+00:00,634.5906060351102
2025-06-26 19:00:00+00:00,634.5906060351102
2025-06-27 13:00:00+00:00,634.5906060351102
2025-06-27 14:00:00+00:00,634.5906060351102
2025-06-27 15:00:00+00:00,634.5906060351102
2025-06-27 16:00:00+00:00,634.5906060351102
2025-06-27 17:00:00+00:00,634.5906060351102
2025-06-27 18:00:00+00:00,634.5906060351102
2025-06-27 19:00:00+00:00,634.5906060351102
2025-06-30 13:00:00+00:00,634.5906060351102
2025-06-30 14:00:00+00:00,634.5906060351102
2025-06-30 15:00:00+00:00,634.5906060351102
2025-06-30 16:00:00+00:00,634.5906060351102
2025-06-30 17:00:00+00:00,634.5906060351102
2025-06-30 19:00:00+00:00,634.5906060351102
2025-07-01 13:00:00+00:00,634.5906060351102
2025-07-01 14:00:00+00:00,634.5906060351102
2025-07-01 15:00:00+00:00,634.5906060351102
2025-07-01 16:00:00+00:00,634.5906060351102
2025-07-01 17:00:00+00:00,634.5906060351102
2025-07-01 18:00:00+00:00,634.5906060351102
2025-07-01 19:00:00+00:00,634.5906060351102
2025-07-02 13:00:00+00:00,634.5906060351102
2025-07-02 14:00:00+00:00,634.5906060351102
2025-07-02 15:00:00+00:00,634.5906060351102
2025-07-02 16:00:00+00:00,634.5906060351102
2025-07-02 17:00:00+00:00,634.5906060351102
2025-07-02 18:00:00+00:00,634.5906060351102
2025-07-02 19:00:00+00:00,634.5906060351102
2025-07-03 13:00:00+00:00,634.5906060351102
2025-07-03 14:00:00+00:00,634.5906060351102
2025-07-03 15:00:00+00:00,634.5906060351102
2025-07-07 13:00:00+00:00,634.5906060351102
2025-07-07 14:00:00+00:00,634.5906060351102
2025-07-07 15:00:00+00:00,634.5906060351102
2025-07-07 16:00:00+00:00,634.5906060351102
2025-07-07 17:00:00+00:00,634.5906060351102
2025-07-07 18:00:00+00:00,634.5906060351102
2025-07-07 19:00:00+00:00,634.5906060351102
2025-07-08 13:00:00+00:00,634.5906060351102
2025-07-08 14:00:00+00:00,634.5906060351102
2025-07-08 15:00:00+00:00,634.5906060351102
2025-07-08 16:00:00+00:00,634.5906060351102
2025-07-08 17:00:00+00:00,634.5906060351102
2025-07-08 18:00:00+00:00,634.5906060351102
2025-07-08 19:00:00+00:00,634.5906060351102
2025-07-09 13:00:00+00:00,634.5906060351102
2025-07-09 14:00:00+00:00,634.5906060351102
2025-07-09 15:00:00+00:00,634.5906060351102
2025-07-09 16:00:00+00:00,634.5906060351102
2025-07-09 17:00:00+00:00,634.5906060351102
2025-07-09 18:00:00+00:00,634.5906060351102
2025-07-09 19:00:00+00:00,634.5906060351102
2025-07-10 13:00:00+00:00,634.5906060351102
2025-07-10 14:00:00+00:00,634.5906060351102
2025-07-10 15:00:00+00:00,634.5906060351102
2025-07-10 16:00:00+00:00,634.5906060351102
2025-07-10 17:00:00+00:00,634.5906060351102
2025-07-10 18:00:00+00:00,634.5906060351102
2025-07-10 19:00:00+00:00,634.5906060351102
2025-07-11 13:00:00+00:00,634.5906060351102
2025-07-11 14:00:00+00:00,634.5906060351102
2025-07-11 15:00:00+00:00,634.5906060351102
2025-07-11 16:00:00+00:00,634.5906060351102
2025-07-11 17:00:00+00:00,634.5906060351102
2025-07-11 18:00:00+00:00,634.5906060351102
2025-07-11 19:00:00+00:00,634.5906060351102
2025-07-14 13:00:00+00:00,634.5906060351102
2025-07-14 14:00:00+00:00,634.5906060351102
2025-07-14 15:00:00+00:00,634.5906060351102
2025-07-14 16:00:00+00:00,634.5906060351102
2025-07-14 17:00:00+00:00,634.5906060351102
2025-07-14 19:00:00+00:00,634.5906060351102
2025-07-15 13:00:00+00:00,634.5906060351102
2025-07-15 14:00:00+00:00,634.5906060351102
2025-07-15 15:00:00+00:00,634.5906060351102
2025-07-15 16:00:00+00:00,634.5906060351102
2025-07-15 17:00:00+00:00,634.5906060351102
2025-07-15 19:00:00+00:00,634.5906060351102
2025-07-16 13:00:00+00:00,634.5906060351102
2025-07-16 14:00:00+00:00,634.5906060351102
2025-07-16 15:00:00+00:00,634.5906060351102
2025-07-16 16:00:00+00:00,634.5906060351102
2025-07-16 17:00:00+00:00,634.5906060351102
2025-07-16 19:00:00+00:00,634.5906060351102
2025-07-17 13:00:00+00:00,634.5906060351102
2025-07-17 15:00:00+00:00,634.5906060351102
2025-07-17 16:00:00+00:00,634.5906060351102
2025-07-17 17:00:00+00:00,634.5906060351102
2025-07-18 13:00:00+00:00,634.5906060351102
2025-07-18 17:00:00+00:00,634.5906060351102
2025-07-18 19:00:00+00:00,634.5906060351102
2025-07-21 13:00:00+00:00,634.5906060351102
2025-07-21 14:00:00+00:00,634.5906060351102
2025-07-21 16:00:00+00:00,634.5906060351102
2025-07-21 19:00:00+00:00,634.5906060351102
2025-07-22 13:00:00+00:00,634.5906060351102
2025-07-22 14:00:00+00:00,634.5906060351102
2025-07-22 15:00:00+00:00,634.5906060351102
2025-07-22 18:00:00+00:00,634.5906060351102
2025-07-22 19:00:00+00:00,634.5906060351102
2025-07-23 13:00:00+00:00,634.5906060351102
2025-07-23 14:00:00+00:00,634.5906060351102
2025-07-23 15:00:00+00:00,634.5906060351102
2025-07-23 16:00:00+00:00,634.5906060351102
2025-07-23 17:00:00+00:00,634.5906060351102
2025-07-23 18:00:00+00:00,634.5906060351102
2025-07-23 19:00:00+00:00,634.5906060351102
2025-07-24 13:00:00+00:00,634.5906060351102
2025-07-24 14:00:00+00:00,634.5906060351102
2025-07-24 15:00:00+00:00,634.5906060351102
2025-07-24 16:00:00+00:00,634.5906060351102
2025-07-24 19:00:00+00:00,634.5906060351102
2025-07-25 13:00:00+00:00,634.5906060351102
2025-07-25 14:00:00+00:00,634.5906060351102
2025-07-25 15:00:00+00:00,634.5906060351102
2025-07-25 16:00:00+00:00,634.5906060351102
2025-07-25 17:00:00+00:00,634.5906060351102
2025-07-25 18:00:00+00:00,634.5906060351102
2025-07-28 13:00:00+00:00,634.5906060351102
2025-07-28 14:00:00+00:00,634.5906060351102
2025-07-28 15:00:00+00:00,634.5906060351102
2025-07-28 16:00:00+00:00,634.5906060351102
2025-07-28 17:00:00+00:00,634.5906060351102
2025-07-28 18:00:00+00:00,634.5906060351102
2025-07-28 19:00:00+00:00,634.5906060351102
2025-07-29 13:00:00+00:00,634.5906060351102
2025-07-29 14:00:00+00:00,634.5906060351102
2025-07-29 15:00:00+00:00,634.5906060351102
2025-07-29 16:00:00+00:00,634.5906060351102
2025-07-29 17:00:00+00:00,634.5906060351102
2025-07-29 18:00:00+00:00,634.5906060351102
2025-07-29 19:00:00+00:00,634.5906060351102
2025-07-30 13:00:00+00:00,634.5906060351102
2025-07-30 14:00:00+00:00,634.5906060351102
2025-07-30 15:00:00+00:00,634.5906060351102
2025-07-30 16:00:00+00:00,634.5906060351102
2025-07-30 17:00:00+00:00,634.5906060351102
2025-07-30 18:00:00+00:00,634.5906060351102
2025-07-30 19:00:00+00:00,634.5906060351102
2025-07-31 13:00:00+00:00,634.5906060351102
2025-07-31 16:00:00+00:00,634.5906060351102
2025-07-31 17:00:00+00:00,634.5906060351102
2025-07-31 18:00:00+00:00,634.5906060351102
2025-07-31 19:00:00+00:00,634.5906060351102
2025-08-01 13:00:00+00:00,634.5906060351102
2025-08-01 14:00:00+00:00,634.5906060351102
2025-08-01 15:00:00+00:00,634.5906060351102
2025-08-01 16:00:00+00:00,634.5906060351102
2025-08-01 17:00:00+00:00,634.5906060351102
2025-08-04 13:00:00+00:00,634.5906060351102
2025-08-04 14:00:00+00:00,634.5906060351102
2025-08-04 15:00:00+00:00,634.5906060351102
2025-08-04 17:00:00+00:00,634.5906060351102
2025-08-04 18:00:00+00:00,634.5906060351102
2025-08-04 19:00:00+00:00,634.5906060351102
2025-08-05 13:00:00+00:00,634.5906060351102
2025-08-05 14:00:00+00:00,634.5906060351102
2025-08-05 16:00:00+00:00,634.5906060351102
2025-08-05 17:00:00+00:00,634.5906060351102
2025-08-05 19:00:00+00:00,634.5906060351102
2025-08-06 13:00:00+00:00,634.5906060351102
2025-08-06 15:00:00+00:00,634.5906060351102
2025-08-06 19:00:00+00:00,634.5906060351102
2025-08-07 13:00:00+00:00,634.5906060351102
2025-08-07 14:00:00+00:00,634.5906060351102
2025-08-07 15:00:00+00:00,634.5906060351102
2025-08-07 16:00:00+00:00,634.5906060351102
2025-08-07 17:00:00+00:00,634.5906060351102
2025-08-07 18:00:00+00:00,634.5906060351102
2025-08-07 19:00:00+00:00,634.5906060351102
2025-08-08 13:00:00+00:00,634.5906060351102
2025-08-08 14:00:00+00:00,634.5906060351102
2025-08-08 16:00:00+00:00,634.5906060351102
2025-08-08 17:00:00+00:00,634.5906060351102
2025-08-08 18:00:00+00:00,634.5906060351102
2025-08-08 19:00:00+00:00,634.5906060351102
2025-08-11 13:00:00+00:00,634.5906060351102
2025-08-11 14:00:00+00:00,634.5906060351102
2025-08-11 15:00:00+00:00,634.5906060351102
2025-08-11 18:00:00+00:00,634.5906060351102
2025-08-11 19:00:00+00:00,634.5906060351102
2025-08-12 13:00:00+00:00,634.5906060351102
2025-08-12 14:00:00+00:00,634.5906060351102
2025-08-12 15:00:00+00:00,634.5906060351102
2025-08-12 16:00:00+00:00,634.5906060351102
2025-08-12 17:00:00+00:00,634.5906060351102
2025-08-12 18:00:00+00:00,634.5906060351102
2025-08-13 13:00:00+00:00,634.5906060351102
2025-08-13 14:00:00+00:00,634.5906060351102
2025-08-13 15:00:00+00:00,634.5906060351102
2025-08-13 16:00:00+00:00,634.5906060351102
2025-08-13 18:00:00+00:00,634.5906060351102
2025-08-13 19:00:00+00:00,634.5906060351102
2025-08-14 13:00:00+00:00,634.5906060351102
2025-08-14 14:00:00+00:00,634.5906060351102
2025-08-14 15:00:00+00:00,634.5906060351102
2025-08-14 16:00:00+00:00,634.5906060351102
2025-08-14 18:00:00+00:00,634.5906060351102
2025-08-15 13:00:00+00:00,634.5906060351102
2025-08-15 14:00:00+00:00,634.5906060351102
2025-08-15 16:00:00+00:00,634.5906060351102
2025-08-15 17:00:00+00:00,634.5906060351102
2025-08-15 18:00:00+00:00,634.5906060351102
2025-08-18 13:00:00+00:00,634.5906060351102
2025-08-18 14:00:00+00:00,634.5906060351102
2025-08-18 15:00:00+00:00,634.5906060351102
2025-08-18 16:00:00+00:00,634.5906060351102
2025-08-18 18:00:00+00:00,634.5906060351102
2025-08-18 19:00:00+00:00,634.5906060351102
2025-08-19 13:00:00+00:00,634.5906060351102
2025-08-19 14:00:00+00:00,634.5906060351102
2025-08-19 15:00:00+00:00,634.5906060351102
2025-08-19 17:00:00+00:00,634.5906060351102
2025-08-19 18:00:00+00:00,634.5906060351102
2025-08-19 19:00:00+00:00,634.5906060351102
2025-08-20 13:00:00+00:00,634.5906060351102
2025-08-20 15:00:00+00:00,634.5906060351102
2025-08-20 16:00:00+00:00,634.5906060351102
2025-08-20 17:00:00+00:00,634.5906060351102
2025-08-21 13:00:00+00:00,634.5906060351102
2025-08-21 14:00:00+00:00,634.5906060351102
2025-08-21 18:00:00+00:00,634.5906060351102
2025-08-21 19:00:00+00:00,634.5906060351102
2025-08-22 13:00:00+00:00,634.5906060351102
2025-08-22 14:00:00+00:00,634.5906060351102
2025-08-22 15:00:00+00:00,634.5906060351102
2025-08-22 16:00:00+00:00,634.5906060351102
2025-08-22 18:00:00+00:00,634.5906060351102
2025-08-22 19:00:00+00:00,634.5906060351102
2025-08-25 13:00:00+00:00,634.5906060351102
2025-08-25 14:00:00+00:00,634.5906060351102
2025-08-25 15:00:00+00:00,634.5906060351102
2025-08-25 17:00:00+00:00,634.5906060351102
2025-08-26 13:00:00+00:00,634.5906060351102
2025-08-26 14:00:00+00:00,634.5906060351102
2025-08-26 18:00:00+00:00,634.5906060351102
2025-08-26 19:00:00+00:00,634.5906060351102
2025-08-27 13:00:00+00:00,634.5906060351102
2025-08-27 14:00:00+00:00,634.5906060351102
2025-08-27 15:00:00+00:00,634.5906060351102
2025-08-27 16:00:00+00:00,634.5906060351102
2025-08-27 17:00:00+00:00,634.5906060351102
2025-08-27 18:00:00+00:00,634.5906060351102
2025-08-27 19:00:00+00:00,634.5906060351102
2025-08-28 14:00:00+00:00,634.5906060351102
2025-08-28 18:00:00+00:00,634.5906060351102
2025-08-28 19:00:00+00:00,634.5906060351102
2025-08-29 15:00:00+00:00,634.5906060351102
2025-08-29 16:00:00+00:00,634.5906060351102
2025-08-29 19:00:00+00:00,634.5906060351102
2025-09-02 13:00:00+00:00,634.5906060351102
2025-09-02 14:00:00+00:00,634.5906060351102
2025-09-02 15:00:00+00:00,634.5906060351102
2025-09-02 18:00:00+00:00,634.5906060351102
2025-09-02 19:00:00+00:00,634.5906060351102
2025-09-03 13:00:00+00:00,634.5906060351102
2025-09-03 15:00:00+00:00,634.5906060351102
2025-09-03 16:00:00+00:00,634.5906060351102
2025-09-03 17:00:00+00:00,634.5906060351102
2025-09-04 13:00:00+00:00,634.5906060351102
2025-09-04 14:00:00+00:00,634.5906060351102
2025-09-04 18:00:00+00:00,634.5906060351102
2025-09-05 13:00:00+00:00,634.5906060351102
2025-09-05 14:00:00+00:00,634.5906060351102
2025-09-05 15:00:00+00:00,634.5906060351102
2025-09-05 16:00:00+00:00,634.5906060351102
2025-09-05 17:00:00+00:00,634.5906060351102
2025-09-05 18:00:00+00:00,634.5906060351102
2025-09-08 13:00:00+00:00,634.5906060351102
2025-09-08 14:00:00+00:00,634.5906060351102
2025-09-08 15:00:00+00:00,634.5906060351102
2025-09-08 18:00:00+00:00,634.5906060351102
2025-09-08 19:00:00+00:00,634.5906060351102
2025-09-09 13:00:00+00:00,634.5906060351102
2025-09-09 14:00:00+00:00,634.5906060351102
2025-09-09 15:00:00+00:00,634.5906060351102
2025-09-09 17:00:00+00:00,634.5906060351102
2025-09-09 18:00:00+00:00,634.5906060351102
2025-09-09 19:00:00+00:00,634.5906060351102
2025-09-10 13:00:00+00:00,634.5906060351102
2025-09-10 14:00:00+00:00,634.5906060351102
2025-09-10 15:00:00+00:00,634.5906060351102
2025-09-10 17:00:00+00:00,634.5906060351102
2025-09-11 13:00:00+00:00,634.5906060351102
2025-09-11 14:00:00+00:00,634.5906060351102
2025-09-11 18:00:00+00:00,634.5906060351102
2025-09-11 19:00:00+00:00,634.5906060351102
2025-09-12 13:00:00+00:00,634.5906060351102
2025-09-12 14:00:00+00:00,634.5906060351102
2025-09-12 15:00:00+00:00,634.5906060351102
2025-09-12 16:00:00+00:00,634.5906060351102
2025-09-12 17:00:00+00:00,634.5906060351102
2025-09-12 18:00:00+00:00,634.5906060351102
2025-09-12 19:00:00+00:00,634.5906060351102
2025-09-15 13:00:00+00:00,634.5906060351102
2025-09-15 14:00:00+00:00,634.5906060351102
2025-09-15 17:00:00+00:00,634.5906060351102
2025-09-15 18:00:00+00:00,634.5906060351102
2025-09-15 19:00:00+00:00,634.5906060351102
2025-09-16 13:00:00+00:00,634.5906060351102
2025-09-16 18:00:00+00:00,634.5906060351102
2025-09-17 13:00:00+00:00,634.5906060351102
2025-09-17 16:00:00+00:00,634.5906060351102
2025-09-17 17:00:00+00:00,634.5906060351102
2025-09-17 18:00:00+00:00,634.5906060351102
2025-09-17 19:00:00+00:00,634.5906060351102
2025-09-18 13:00:00+00:00,634.5906060351102
2025-09-18 14:00:00+00:00,634.5906060351102
2025-09-18 16:00:00+00:00,634.5906060351102
2025-09-18 18:00:00+00:00,634.5906060351102
2025-09-19 13:00:00+00:00,634.5906060351102
2025-09-19 15:00:00+00:00,634.5906060351102
2025-09-19 17:00:00+00:00,634.5906060351102
2025-09-19 19:00:00+00:00,634.5906060351102
2025-09-22 13:00:00+00:00,634.5906060351102
2025-09-22 14:00:00+00:00,634.5906060351102
2025-09-22 15:00:00+00:00,634.5906060351102
2025-09-22 18:00:00+00:00,634.5906060351102
2025-09-22 19:00:00+00:00,634.5906060351102
2025-09-23 13:00:00+00:00,634.5906060351102
2025-09-23 14:00:00+00:00,634.5906060351102
2025-09-23 15:00:00+00:00,634.5906060351102
2025-09-23 19:00:00+00:00,634.5906060351102
2025-09-24 15:00:00+00:00,634.5906060351102
2025-09-24 17:00:00+00:00,634.5906060351102
2025-09-24 18:00:00+00:00,634.5906060351102
2025-09-24 19:00:00+00:00,634.5906060351102
2025-09-25 13:00:00+00:00,634.5906060351102
2025-09-25 15:00:00+00:00,634.5906060351102
2025-09-25 17:00:00+00:00,634.5906060351102
2025-09-25 18:00:00+00:00,634.5906060351102
2025-09-26 13:00:00+00:00,634.5906060351102
2025-09-26 14:00:00+00:00,634.5906060351102
2025-09-26 17:00:00+00:00,634.5906060351102
2025-09-26 18:00:00+00:00,634.5906060351102
2025-09-26 19:00:00+00:00,634.5906060351102
2025-09-29 13:00:00+00:00,634.5906060351102
2025-09-29 14:00:00+00:00,634.5906060351102
2025-09-29 16:00:00+00:00,634.5906060351102
2025-09-29 17:00:00+00:00,634.5906060351102
2025-09-29 18:00:00+00:00,634.5906060351102
2025-09-29 19:00:00+00:00,634.5906060351102
2025-09-30 13:00:00+00:00,634.5906060351102
2025-09-30 14:00:00+00:00,634.5906060351102
2025-09-30 15:00:00+00:00,634.5906060351102
2025-09-30 16:00:00+00:00,634.5906060351102
2025-09-30 18:00:00+00:00,634.5906060351102
2025-09-30 19:00:00+00:00,634.5906060351102
2025-10-01 13:00:00+00:00,634.5906060351102
2025-10-01 14:00:00+00:00,634.5906060351102
2025-10-01 16:00:00+00:00,634.5906060351102
2025-10-01 19:00:00+00:00,634.5906060351102
2025-10-02 13:00:00+00:00,634.5906060351102
2025-10-02 14:00:00+00:00,634.5906060351102
2025-10-02 15:00:00+00:00,634.5906060351102
2025-10-02 16:00:00+00:00,634.5906060351102
2025-10-02 17:00:00+00:00,634.5906060351102
2025-10-02 18:00:00+00:00,634.5906060351102
2025-10-02 19:00:00+00:00,634.5906060351102
2025-10-03 13:00:00+00:00,634.5906060351102
2025-10-03 14:00:00+00:00,634.5906060351102
2025-10-03 15:00:00+00:00,634.5906060351102
2025-10-03 16:00:00+00:00,634.5906060351102
2025-10-03 17:00:00+00:00,634.5906060351102
2025-10-03 19:00:00+00:00,634.5906060351102
2025-10-06 13:00:00+00:00,634.5906060351102
2025-10-06 14:00:00+00:00,634.5906060351102
2025-10-06 15:00:00+00:00,634.5906060351102
2025-10-06 16:00:00+00:00,634.5906060351102
2025-10-06 17:00:00+00:00,634.5906060351102
2025-10-06 18:00:00+00:00,634.5906060351102
2025-10-06 19:00:00+00:00,634.5906060351102
2025-10-07 13:00:00+00:00,634.5906060351102
2025-10-07 14:00:00+00:00,634.5906060351102
2025-10-07 15:00:00+00:00,634.5906060351102
2025-10-07 16:00:00+00:00,634.5906060351102
2025-10-07 17:00:00+00:00,634.5906060351102
2025-10-07 18:00:00+00:00,634.5906060351102
2025-10-07 19:00:00+00:00,634.5906060351102
2025-10-08 13:00:00+00:00,634.5906060351102
2025-10-08 14:00:00+00:00,634.5906060351102
2025-10-08 15:00:00+00:00,634.5906060351102
2025-10-08 18:00:00+00:00,634.5906060351102
2025-10-08 19:00:00+00:00,634.5906060351102
2025-10-09 13:00:00+00:00,634.5906060351102
2025-10-09 14:00:00+00:00,634.5906060351102
2025-10-09 15:00:00+00:00,634.5906060351102
2025-10-09 18:00:00+00:00,634.5906060351102
2025-10-10 13:00:00+00:00,634.5906060351102
2025-10-10 14:00:00+00:00,634.5906060351102
2025-10-10 15:00:00+00:00,634.5906060351102
2025-10-10 16:00:00+00:00,634.5906060351102
2025-10-10 18:00:00+00:00,634.5906060351102
2025-10-13 13:00:00+00:00,634.5906060351102
2025-10-13 14:00:00+00:00,634.5906060351102
2025-10-13 15:00:00+00:00,634.5906060351102
2025-10-13 16:00:00+00:00,634.5906060351102
2025-10-13 18:00:00+00:00,634.5906060351102
2025-10-13 19:00:00+00:00,634.5906060351102
2025-10-14 13:00:00+00:00,634.5906060351102
2025-10-14 14:00:00+00:00,634.5906060351102
2025-10-14 16:00:00+00:00,634.5906060351102
2025-10-14 17:00:00+00:00,634.5906060351102
2025-10-14 18:00:00+00:00,634.5906060351102
2025-10-14 19:00:00+00:00,634.5906060351102
2025-10-15 13:00:00+00:00,634.5906060351102
2025-10-15 14:00:00+00:00,634.5906060351102
2025-10-15 15:00:00+00:00,634.5906060351102
2025-10-15 18:00:00+00:00,634.5906060351102
2025-10-15 19:00:00+00:00,634.5906060351102
2025-10-16 13:00:00+00:00,634.5906060351102
2025-10-16 14:00:00+00:00,634.5906060351102
2025-10-16 15:00:00+00:00,634.5906060351102
2025-10-16 16:00:00+00:00,634.5906060351102
2025-10-16 17:00:00+00:00,634.5906060351102
2025-10-16 18:00:00+00:00,634.5906060351102
2025-10-16 19:00:00+00:00,634.5906060351102
2025-10-17 13:00:00+00:00,634.5906060351102
2025-10-17 14:00:00+00:00,634.5906060351102
2025-10-17 15:00:00+00:00,634.5906060351102
2025-10-17 17:00:00+00:00,634.5906060351102
2025-10-17 18:00:00+00:00,634.5906060351102
2025-10-20 13:00:00+00:00,634.5906060351102
2025-10-20 14:00:00+00:00,634.5906060351102
2025-10-20 17:00:00+00:00,634.5906060351102
2025-10-20 18:00:00+00:00,634.5906060351102
2025-10-21 13:00:00+00:00,634.5906060351102
2025-10-21 14:00:00+00:00,634.5906060351102
2025-10-21 16:00:00+00:00,634.5906060351102
2025-10-21 17:00:00+00:00,634.5906060351102
2025-10-21 18:00:00+00:00,634.5906060351102
2025-10-21 19:00:00+00:00,634.5906060351102
2025-10-22 13:00:00+00:00,634.5906060351102
2025-10-22 14:00:00+00:00,634.5906060351102
2025-10-22 16:00:00+00:00,634.5906060351102
2025-10-22 17:00:00+00:00,634.5906060351102
2025-10-22 18:00:00+00:00,634.5906060351102
2025-10-22 19:00:00+00:00,634.5906060351102
