Date,0
2024-01-02 14:00:00+00:00,0.0
2024-01-02 15:00:00+00:00,0.0
2024-01-02 16:00:00+00:00,0.0
2024-01-02 17:00:00+00:00,0.0
2024-01-02 18:00:00+00:00,0.0
2024-01-02 19:00:00+00:00,0.0
2024-01-02 20:00:00+00:00,0.0
2024-01-03 14:00:00+00:00,0.0
2024-01-03 15:00:00+00:00,0.0
2024-01-03 16:00:00+00:00,0.0
2024-01-03 17:00:00+00:00,0.0
2024-01-03 18:00:00+00:00,0.0
2024-01-03 19:00:00+00:00,0.0
2024-01-03 20:00:00+00:00,0.0
2024-01-04 14:00:00+00:00,0.0
2024-01-04 15:00:00+00:00,0.0
2024-01-04 16:00:00+00:00,0.0
2024-01-04 17:00:00+00:00,0.0
2024-01-04 18:00:00+00:00,0.0
2024-01-04 19:00:00+00:00,0.0
2024-01-04 20:00:00+00:00,0.0
2024-01-05 14:00:00+00:00,0.0
2024-01-05 15:00:00+00:00,0.0
2024-01-05 16:00:00+00:00,0.0
2024-01-05 17:00:00+00:00,0.0
2024-01-05 18:00:00+00:00,0.0
2024-01-05 19:00:00+00:00,0.0
2024-01-05 20:00:00+00:00,0.0
2024-01-08 14:00:00+00:00,0.0
2024-01-08 15:00:00+00:00,0.0
2024-01-08 16:00:00+00:00,0.0
2024-01-08 17:00:00+00:00,0.0
2024-01-08 18:00:00+00:00,0.0
2024-01-08 19:00:00+00:00,0.0
2024-01-08 20:00:00+00:00,0.0
2024-01-09 14:00:00+00:00,0.0
2024-01-09 15:00:00+00:00,0.0
2024-01-09 16:00:00+00:00,0.0
2024-01-09 17:00:00+00:00,0.0
2024-01-09 18:00:00+00:00,0.0
2024-01-09 19:00:00+00:00,0.0
2024-01-09 20:00:00+00:00,0.0
2024-01-10 14:00:00+00:00,0.0
2024-01-10 15:00:00+00:00,0.0
2024-01-10 16:00:00+00:00,0.0
2024-01-10 17:00:00+00:00,0.0
2024-01-10 18:00:00+00:00,0.0
2024-01-10 19:00:00+00:00,0.0
2024-01-10 20:00:00+00:00,0.0
2024-01-11 14:00:00+00:00,0.0
2024-01-11 15:00:00+00:00,0.0
2024-01-11 16:00:00+00:00,0.0
2024-01-11 17:00:00+00:00,0.0
2024-01-11 18:00:00+00:00,0.0
2024-01-11 19:00:00+00:00,0.0
2024-01-11 20:00:00+00:00,0.0
2024-01-12 14:00:00+00:00,0.0
2024-01-12 15:00:00+00:00,0.0
2024-01-12 16:00:00+00:00,0.0
2024-01-12 17:00:00+00:00,0.0
2024-01-12 18:00:00+00:00,0.0
2024-01-12 19:00:00+00:00,0.0
2024-01-12 20:00:00+00:00,0.0
2024-01-16 14:00:00+00:00,0.0
2024-01-16 15:00:00+00:00,0.0
2024-01-16 16:00:00+00:00,0.0
2024-01-16 17:00:00+00:00,0.0
2024-01-16 18:00:00+00:00,0.0
2024-01-16 19:00:00+00:00,0.0
2024-01-16 20:00:00+00:00,0.0
2024-01-17 14:00:00+00:00,0.0
2024-01-17 15:00:00+00:00,0.0
2024-01-17 16:00:00+00:00,0.0
2024-01-17 17:00:00+00:00,0.0
2024-01-17 18:00:00+00:00,0.0
2024-01-17 19:00:00+00:00,0.0
2024-01-17 20:00:00+00:00,0.0
2024-01-18 14:00:00+00:00,0.0
2024-01-18 15:00:00+00:00,0.0
2024-01-18 16:00:00+00:00,0.0
2024-01-18 17:00:00+00:00,0.0
2024-01-18 18:00:00+00:00,0.0
2024-01-18 19:00:00+00:00,0.0
2024-01-18 20:00:00+00:00,0.0
2024-01-19 14:00:00+00:00,0.0
2024-01-19 15:00:00+00:00,0.0
2024-01-19 16:00:00+00:00,0.0
2024-01-19 17:00:00+00:00,0.0
2024-01-19 18:00:00+00:00,0.0
2024-01-19 19:00:00+00:00,0.0
2024-01-19 20:00:00+00:00,0.0
2024-01-22 14:00:00+00:00,0.0
2024-01-22 15:00:00+00:00,0.0
2024-01-22 16:00:00+00:00,0.0
2024-01-22 17:00:00+00:00,0.0
2024-01-22 18:00:00+00:00,0.0
2024-01-22 19:00:00+00:00,0.0
2024-01-22 20:00:00+00:00,0.0
2024-01-23 14:00:00+00:00,0.0
2024-01-23 15:00:00+00:00,0.0
2024-01-23 16:00:00+00:00,0.0
2024-01-23 17:00:00+00:00,0.0
2024-01-23 18:00:00+00:00,0.0
2024-01-23 19:00:00+00:00,0.0
2024-01-23 20:00:00+00:00,0.0
2024-01-24 14:00:00+00:00,0.0
2024-01-24 15:00:00+00:00,0.0
2024-01-24 16:00:00+00:00,0.0
2024-01-24 17:00:00+00:00,0.0
2024-01-24 18:00:00+00:00,0.0
2024-01-24 19:00:00+00:00,0.0
2024-01-24 20:00:00+00:00,0.0
2024-01-25 14:00:00+00:00,0.0
2024-01-25 15:00:00+00:00,0.0
2024-01-25 16:00:00+00:00,0.0
2024-01-25 17:00:00+00:00,0.0
2024-01-25 18:00:00+00:00,0.0
2024-01-25 19:00:00+00:00,0.0
2024-01-25 20:00:00+00:00,0.0
2024-01-26 14:00:00+00:00,0.0
2024-01-26 15:00:00+00:00,0.0
2024-01-26 16:00:00+00:00,0.0
2024-01-26 17:00:00+00:00,0.0
2024-01-26 18:00:00+00:00,0.0
2024-01-26 19:00:00+00:00,0.0
2024-01-26 20:00:00+00:00,0.0
2024-01-29 14:00:00+00:00,0.0
2024-01-29 15:00:00+00:00,0.0
2024-01-29 16:00:00+00:00,0.0
2024-01-29 17:00:00+00:00,0.0
2024-01-29 18:00:00+00:00,0.0
2024-01-29 19:00:00+00:00,0.0
2024-01-29 20:00:00+00:00,0.0
2024-01-30 14:00:00+00:00,0.0
2024-01-30 15:00:00+00:00,0.0
2024-01-30 16:00:00+00:00,0.0
2024-01-30 17:00:00+00:00,0.0
2024-01-30 18:00:00+00:00,0.0
2024-01-30 19:00:00+00:00,0.0
2024-01-30 20:00:00+00:00,0.0
2024-01-31 14:00:00+00:00,0.0
2024-01-31 15:00:00+00:00,0.0
2024-01-31 16:00:00+00:00,0.0
2024-01-31 17:00:00+00:00,0.0
2024-01-31 18:00:00+00:00,0.0
2024-01-31 19:00:00+00:00,0.0
2024-01-31 20:00:00+00:00,0.0
2024-02-01 14:00:00+00:00,0.0
2024-02-01 15:00:00+00:00,0.0
2024-02-01 16:00:00+00:00,0.0
2024-02-01 17:00:00+00:00,0.0
2024-02-01 18:00:00+00:00,0.0
2024-02-01 19:00:00+00:00,0.0
2024-02-01 20:00:00+00:00,0.0
2024-02-02 14:00:00+00:00,0.0
2024-02-02 15:00:00+00:00,0.0
2024-02-02 16:00:00+00:00,0.0
2024-02-02 17:00:00+00:00,0.0
2024-02-02 18:00:00+00:00,0.0
2024-02-02 19:00:00+00:00,0.0
2024-02-02 20:00:00+00:00,0.0
2024-02-05 14:00:00+00:00,0.0
2024-02-05 15:00:00+00:00,0.0
2024-02-05 16:00:00+00:00,0.0
2024-02-05 17:00:00+00:00,0.0
2024-02-05 18:00:00+00:00,0.0
2024-02-05 19:00:00+00:00,0.0
2024-02-05 20:00:00+00:00,0.0
2024-02-06 14:00:00+00:00,0.0
2024-02-06 15:00:00+00:00,0.0
2024-02-06 16:00:00+00:00,0.0
2024-02-06 17:00:00+00:00,0.0
2024-02-06 18:00:00+00:00,0.0
2024-02-06 19:00:00+00:00,0.0
2024-02-06 20:00:00+00:00,0.0
2024-02-07 14:00:00+00:00,0.0
2024-02-07 15:00:00+00:00,0.0
2024-02-07 16:00:00+00:00,0.0
2024-02-07 17:00:00+00:00,0.0
2024-02-07 18:00:00+00:00,0.0
2024-02-07 19:00:00+00:00,0.0
2024-02-07 20:00:00+00:00,0.0
2024-02-08 14:00:00+00:00,0.0
2024-02-08 15:00:00+00:00,0.0
2024-02-08 16:00:00+00:00,0.0
2024-02-08 17:00:00+00:00,0.0
2024-02-08 18:00:00+00:00,0.0
2024-02-08 19:00:00+00:00,0.0
2024-02-08 20:00:00+00:00,0.0
2024-02-09 14:00:00+00:00,0.0
2024-02-09 15:00:00+00:00,0.0
2024-02-09 16:00:00+00:00,0.0
2024-02-09 17:00:00+00:00,0.0
2024-02-09 18:00:00+00:00,0.0
2024-02-09 19:00:00+00:00,0.0
2024-02-09 20:00:00+00:00,0.0
2024-02-12 14:00:00+00:00,0.0
2024-02-12 15:00:00+00:00,0.0
2024-02-12 16:00:00+00:00,0.0
2024-02-12 17:00:00+00:00,0.0
2024-02-12 18:00:00+00:00,0.0
2024-02-12 19:00:00+00:00,0.0
2024-02-12 20:00:00+00:00,0.0
2024-02-13 14:00:00+00:00,0.0
2024-02-13 15:00:00+00:00,0.0
2024-02-13 16:00:00+00:00,0.0
2024-02-13 17:00:00+00:00,0.0
2024-02-13 18:00:00+00:00,0.0
2024-02-13 19:00:00+00:00,0.0
2024-02-13 20:00:00+00:00,0.0
2024-02-14 14:00:00+00:00,0.0
2024-02-14 15:00:00+00:00,0.0
2024-02-14 16:00:00+00:00,0.0
2024-02-14 17:00:00+00:00,0.0
2024-02-14 18:00:00+00:00,0.0
2024-02-14 19:00:00+00:00,0.0
2024-02-14 20:00:00+00:00,0.0
2024-02-15 14:00:00+00:00,0.0
2024-02-15 15:00:00+00:00,0.0
2024-02-15 16:00:00+00:00,0.0
2024-02-15 17:00:00+00:00,0.0
2024-02-15 18:00:00+00:00,0.0
2024-02-15 19:00:00+00:00,0.0
2024-02-15 20:00:00+00:00,0.0
2024-02-16 14:00:00+00:00,0.0
2024-02-16 15:00:00+00:00,0.0
2024-02-16 16:00:00+00:00,0.0
2024-02-16 17:00:00+00:00,0.0
2024-02-16 18:00:00+00:00,0.0
2024-02-16 19:00:00+00:00,0.0
2024-02-16 20:00:00+00:00,0.0
2024-02-20 14:00:00+00:00,0.0
2024-02-20 15:00:00+00:00,0.0
2024-02-20 16:00:00+00:00,0.0
2024-02-20 17:00:00+00:00,0.0
2024-02-20 18:00:00+00:00,0.0
2024-02-20 19:00:00+00:00,0.0
2024-02-20 20:00:00+00:00,0.0
2024-02-21 14:00:00+00:00,0.0
2024-02-21 15:00:00+00:00,0.0
2024-02-21 16:00:00+00:00,0.0
2024-02-21 17:00:00+00:00,0.0
2024-02-21 18:00:00+00:00,0.0
2024-02-21 19:00:00+00:00,0.0
2024-02-21 20:00:00+00:00,0.0
2024-02-22 14:00:00+00:00,0.0
2024-02-22 15:00:00+00:00,0.0
2024-02-22 16:00:00+00:00,0.0
2024-02-22 17:00:00+00:00,0.0
2024-02-22 18:00:00+00:00,0.0
2024-02-22 19:00:00+00:00,0.0
2024-02-22 20:00:00+00:00,0.0
2024-02-23 14:00:00+00:00,0.0
2024-02-23 15:00:00+00:00,0.0
2024-02-23 16:00:00+00:00,0.0
2024-02-23 17:00:00+00:00,0.0
2024-02-23 18:00:00+00:00,0.0
2024-02-23 19:00:00+00:00,0.0
2024-02-23 20:00:00+00:00,0.0
2024-02-26 14:00:00+00:00,0.0
2024-02-26 15:00:00+00:00,0.0
2024-02-26 16:00:00+00:00,0.0
2024-02-26 17:00:00+00:00,0.0
2024-02-26 18:00:00+00:00,0.0
2024-02-26 19:00:00+00:00,0.0
2024-02-26 20:00:00+00:00,0.0
2024-02-27 14:00:00+00:00,0.0
2024-02-27 15:00:00+00:00,0.0
2024-02-27 16:00:00+00:00,0.0
2024-02-27 17:00:00+00:00,0.0
2024-02-27 18:00:00+00:00,0.0
2024-02-27 19:00:00+00:00,0.0
2024-02-27 20:00:00+00:00,0.0
2024-02-28 14:00:00+00:00,0.0
2024-02-28 15:00:00+00:00,0.0
2024-02-28 16:00:00+00:00,0.0
2024-02-28 17:00:00+00:00,0.0
2024-02-28 18:00:00+00:00,0.0
2024-02-28 19:00:00+00:00,0.0
2024-02-28 20:00:00+00:00,0.0
2024-02-29 14:00:00+00:00,0.0
2024-02-29 15:00:00+00:00,0.0
2024-02-29 16:00:00+00:00,0.0
2024-02-29 17:00:00+00:00,0.0
2024-02-29 18:00:00+00:00,0.0
2024-02-29 19:00:00+00:00,0.0
2024-02-29 20:00:00+00:00,0.0
2024-03-01 14:00:00+00:00,0.0
2024-03-01 15:00:00+00:00,0.0
2024-03-01 16:00:00+00:00,0.0
2024-03-01 17:00:00+00:00,0.0
2024-03-01 18:00:00+00:00,0.0
2024-03-01 19:00:00+00:00,0.0
2024-03-01 20:00:00+00:00,0.0
2024-03-04 14:00:00+00:00,0.0
2024-03-04 15:00:00+00:00,0.0
2024-03-04 16:00:00+00:00,0.0
2024-03-04 17:00:00+00:00,0.0
2024-03-04 18:00:00+00:00,0.0
2024-03-04 19:00:00+00:00,0.0
2024-03-04 20:00:00+00:00,0.0
2024-03-05 14:00:00+00:00,0.0
2024-03-05 15:00:00+00:00,0.0
2024-03-05 16:00:00+00:00,0.0
2024-03-05 17:00:00+00:00,0.0
2024-03-05 18:00:00+00:00,0.0
2024-03-05 19:00:00+00:00,0.0
2024-03-05 20:00:00+00:00,0.0
2024-03-06 14:00:00+00:00,0.0
2024-03-06 15:00:00+00:00,0.0
2024-03-06 16:00:00+00:00,0.0
2024-03-06 17:00:00+00:00,0.0
2024-03-06 18:00:00+00:00,0.0
2024-03-06 19:00:00+00:00,0.0
2024-03-06 20:00:00+00:00,0.0
2024-03-07 14:00:00+00:00,0.0
2024-03-07 15:00:00+00:00,0.0
2024-03-07 16:00:00+00:00,0.0
2024-03-07 17:00:00+00:00,0.0
2024-03-07 18:00:00+00:00,0.0
2024-03-07 19:00:00+00:00,0.0
2024-03-07 20:00:00+00:00,0.0
2024-03-08 14:00:00+00:00,0.0
2024-03-08 15:00:00+00:00,0.0
2024-03-08 16:00:00+00:00,0.0
2024-03-08 17:00:00+00:00,0.0
2024-03-08 18:00:00+00:00,0.0
2024-03-08 19:00:00+00:00,0.0
2024-03-08 20:00:00+00:00,0.0
2024-03-11 13:00:00+00:00,0.0
2024-03-11 14:00:00+00:00,0.0
2024-03-11 15:00:00+00:00,0.0
2024-03-11 16:00:00+00:00,0.0
2024-03-11 17:00:00+00:00,0.0
2024-03-11 18:00:00+00:00,0.0
2024-03-11 19:00:00+00:00,0.0
2024-03-12 13:00:00+00:00,0.0
2024-03-12 14:00:00+00:00,0.0
2024-03-12 15:00:00+00:00,0.0
2024-03-12 16:00:00+00:00,0.0
2024-03-12 17:00:00+00:00,0.0
2024-03-12 18:00:00+00:00,0.0
2024-03-12 19:00:00+00:00,0.0
2024-03-13 13:00:00+00:00,0.0
2024-03-13 14:00:00+00:00,0.0
2024-03-13 15:00:00+00:00,0.0
2024-03-13 16:00:00+00:00,0.0
2024-03-13 17:00:00+00:00,0.0
2024-03-13 18:00:00+00:00,0.0
2024-03-13 19:00:00+00:00,0.0
2024-03-14 13:00:00+00:00,0.0
2024-03-14 14:00:00+00:00,0.0
2024-03-14 15:00:00+00:00,0.0
2024-03-14 16:00:00+00:00,0.0
2024-03-14 17:00:00+00:00,0.0
2024-03-14 18:00:00+00:00,0.0
2024-03-14 19:00:00+00:00,0.0
2024-03-15 13:00:00+00:00,0.0
2024-03-15 14:00:00+00:00,0.0
2024-03-15 15:00:00+00:00,0.0
2024-03-15 16:00:00+00:00,0.0
2024-03-15 17:00:00+00:00,0.0
2024-03-15 18:00:00+00:00,0.0
2024-03-15 19:00:00+00:00,0.0
2024-03-18 13:00:00+00:00,0.0
2024-03-18 14:00:00+00:00,0.0
2024-03-18 15:00:00+00:00,0.0
2024-03-18 16:00:00+00:00,0.0
2024-03-18 17:00:00+00:00,0.0
2024-03-18 18:00:00+00:00,0.0
2024-03-18 19:00:00+00:00,0.0
2024-03-19 13:00:00+00:00,0.0
2024-03-19 14:00:00+00:00,0.0
2024-03-19 15:00:00+00:00,0.0
2024-03-19 16:00:00+00:00,0.0
2024-03-19 17:00:00+00:00,0.0
2024-03-19 18:00:00+00:00,0.0
2024-03-19 19:00:00+00:00,0.0
2024-03-20 13:00:00+00:00,0.0
2024-03-20 14:00:00+00:00,0.0
2024-03-20 15:00:00+00:00,0.0
2024-03-20 16:00:00+00:00,0.0
2024-03-20 17:00:00+00:00,0.0
2024-03-20 18:00:00+00:00,0.0
2024-03-20 19:00:00+00:00,0.0
2024-03-21 13:00:00+00:00,0.0
2024-03-21 14:00:00+00:00,0.0
2024-03-21 15:00:00+00:00,0.0
2024-03-21 16:00:00+00:00,0.0
2024-03-21 17:00:00+00:00,0.0
2024-03-21 18:00:00+00:00,0.0
2024-03-21 19:00:00+00:00,0.0
2024-03-22 13:00:00+00:00,0.0
2024-03-22 14:00:00+00:00,0.0
2024-03-22 15:00:00+00:00,0.0
2024-03-22 16:00:00+00:00,0.0
2024-03-22 17:00:00+00:00,0.0
2024-03-22 18:00:00+00:00,0.0
2024-03-22 19:00:00+00:00,0.0
2024-03-25 13:00:00+00:00,0.0
2024-03-25 14:00:00+00:00,0.0
2024-03-25 15:00:00+00:00,0.0
2024-03-25 16:00:00+00:00,0.0
2024-03-25 17:00:00+00:00,0.0
2024-03-25 18:00:00+00:00,0.0
2024-03-25 19:00:00+00:00,0.0
2024-03-26 13:00:00+00:00,0.0
2024-03-26 14:00:00+00:00,0.0
2024-03-26 15:00:00+00:00,0.0
2024-03-26 16:00:00+00:00,0.0
2024-03-26 17:00:00+00:00,0.0
2024-03-26 18:00:00+00:00,0.0
2024-03-26 19:00:00+00:00,0.0
2024-03-27 13:00:00+00:00,0.0
2024-03-27 14:00:00+00:00,0.0
2024-03-27 15:00:00+00:00,0.0
2024-03-27 16:00:00+00:00,0.0
2024-03-27 17:00:00+00:00,0.0
2024-03-27 18:00:00+00:00,0.0
2024-03-27 19:00:00+00:00,0.0
2024-03-28 13:00:00+00:00,0.0
2024-03-28 14:00:00+00:00,0.0
2024-03-28 15:00:00+00:00,0.0
2024-03-28 16:00:00+00:00,0.0
2024-03-28 17:00:00+00:00,0.0
2024-03-28 18:00:00+00:00,0.0
2024-03-28 19:00:00+00:00,0.0
2024-04-01 13:00:00+00:00,0.0
2024-04-01 14:00:00+00:00,0.0
2024-04-01 15:00:00+00:00,0.0
2024-04-01 16:00:00+00:00,0.0
2024-04-01 17:00:00+00:00,0.0
2024-04-01 18:00:00+00:00,0.0
2024-04-01 19:00:00+00:00,0.0
2024-04-02 13:00:00+00:00,0.0
2024-04-02 14:00:00+00:00,0.0
2024-04-02 15:00:00+00:00,0.0
2024-04-02 16:00:00+00:00,0.0
2024-04-02 17:00:00+00:00,0.0
2024-04-02 18:00:00+00:00,0.0
2024-04-02 19:00:00+00:00,0.0
2024-04-03 13:00:00+00:00,0.0
2024-04-03 14:00:00+00:00,0.0
2024-04-03 15:00:00+00:00,0.0
2024-04-03 16:00:00+00:00,0.0
2024-04-03 17:00:00+00:00,0.0
2024-04-03 18:00:00+00:00,0.0
2024-04-03 19:00:00+00:00,0.0
2024-04-04 13:00:00+00:00,0.0
2024-04-04 14:00:00+00:00,0.0
2024-04-04 15:00:00+00:00,0.0
2024-04-04 16:00:00+00:00,0.0
2024-04-04 17:00:00+00:00,0.0
2024-04-04 18:00:00+00:00,0.0
2024-04-04 19:00:00+00:00,0.0
2024-04-05 13:00:00+00:00,0.0
2024-04-05 14:00:00+00:00,0.0
2024-04-05 15:00:00+00:00,0.0
2024-04-05 16:00:00+00:00,0.0
2024-04-05 17:00:00+00:00,0.0
2024-04-05 18:00:00+00:00,0.0
2024-04-05 19:00:00+00:00,0.0
2024-04-08 13:00:00+00:00,0.0
2024-04-08 14:00:00+00:00,0.0
2024-04-08 15:00:00+00:00,0.0
2024-04-08 16:00:00+00:00,0.0
2024-04-08 17:00:00+00:00,0.0
2024-04-08 18:00:00+00:00,0.0
2024-04-08 19:00:00+00:00,0.0
2024-04-09 13:00:00+00:00,0.0
2024-04-09 14:00:00+00:00,0.0
2024-04-09 15:00:00+00:00,0.0
2024-04-09 16:00:00+00:00,0.0
2024-04-09 17:00:00+00:00,0.0
2024-04-09 18:00:00+00:00,0.0
2024-04-09 19:00:00+00:00,0.0
2024-04-10 13:00:00+00:00,0.0
2024-04-10 14:00:00+00:00,0.0
2024-04-10 15:00:00+00:00,0.0
2024-04-10 16:00:00+00:00,0.0
2024-04-10 17:00:00+00:00,0.0
2024-04-10 18:00:00+00:00,0.0
2024-04-10 19:00:00+00:00,0.0
2024-04-11 13:00:00+00:00,0.0
2024-04-11 14:00:00+00:00,0.0
2024-04-11 15:00:00+00:00,0.0
2024-04-11 16:00:00+00:00,0.0
2024-04-11 17:00:00+00:00,0.0
2024-04-11 18:00:00+00:00,0.0
2024-04-11 19:00:00+00:00,0.0
2024-04-12 13:00:00+00:00,0.0
2024-04-12 14:00:00+00:00,0.0
2024-04-12 15:00:00+00:00,0.0
2024-04-12 16:00:00+00:00,0.0
2024-04-12 17:00:00+00:00,0.0
2024-04-12 18:00:00+00:00,0.0
2024-04-12 19:00:00+00:00,0.0
2024-04-15 13:00:00+00:00,0.0
2024-04-15 14:00:00+00:00,0.0
2024-04-15 15:00:00+00:00,0.0
2024-04-15 16:00:00+00:00,0.0
2024-04-15 17:00:00+00:00,0.0
2024-04-15 18:00:00+00:00,0.0
2024-04-15 19:00:00+00:00,0.0
2024-04-16 13:00:00+00:00,0.0
2024-04-16 14:00:00+00:00,0.0
2024-04-16 15:00:00+00:00,0.0
2024-04-16 16:00:00+00:00,0.0
2024-04-16 17:00:00+00:00,0.0
2024-04-16 18:00:00+00:00,0.0
2024-04-16 19:00:00+00:00,0.0
2024-04-17 13:00:00+00:00,0.0
2024-04-17 14:00:00+00:00,0.0
2024-04-17 15:00:00+00:00,0.0
2024-04-17 16:00:00+00:00,0.0
2024-04-17 17:00:00+00:00,0.0
2024-04-17 18:00:00+00:00,0.0
2024-04-17 19:00:00+00:00,0.0
2024-04-18 13:00:00+00:00,0.0
2024-04-18 14:00:00+00:00,0.0
2024-04-18 15:00:00+00:00,0.0
2024-04-18 16:00:00+00:00,0.0
2024-04-18 17:00:00+00:00,0.0
2024-04-18 18:00:00+00:00,0.0
2024-04-18 19:00:00+00:00,0.0
2024-04-19 13:00:00+00:00,0.0
2024-04-19 14:00:00+00:00,0.0
2024-04-19 15:00:00+00:00,0.0
2024-04-19 16:00:00+00:00,0.0
2024-04-19 17:00:00+00:00,0.0
2024-04-19 18:00:00+00:00,0.0
2024-04-19 19:00:00+00:00,0.0
2024-04-22 13:00:00+00:00,0.0
2024-04-22 14:00:00+00:00,0.0
2024-04-22 15:00:00+00:00,0.0
2024-04-22 16:00:00+00:00,0.0
2024-04-22 17:00:00+00:00,0.0
2024-04-22 18:00:00+00:00,0.0
2024-04-22 19:00:00+00:00,0.0
2024-04-23 13:00:00+00:00,0.0
2024-04-23 14:00:00+00:00,0.0
2024-04-23 15:00:00+00:00,0.0
2024-04-23 16:00:00+00:00,0.0
2024-04-23 17:00:00+00:00,0.0
2024-04-23 18:00:00+00:00,0.0
2024-04-23 19:00:00+00:00,0.0
2024-04-24 13:00:00+00:00,0.0
2024-04-24 14:00:00+00:00,0.0
2024-04-24 15:00:00+00:00,0.0
2024-04-24 16:00:00+00:00,0.0
2024-04-24 17:00:00+00:00,0.0
2024-04-24 18:00:00+00:00,0.0
2024-04-24 19:00:00+00:00,0.0
2024-04-25 13:00:00+00:00,0.0
2024-04-25 14:00:00+00:00,0.0
2024-04-25 15:00:00+00:00,0.0
2024-04-25 16:00:00+00:00,0.0
2024-04-25 17:00:00+00:00,0.0
2024-04-25 18:00:00+00:00,0.0
2024-04-25 19:00:00+00:00,0.0
2024-04-26 13:00:00+00:00,0.0
2024-04-26 14:00:00+00:00,0.0
2024-04-26 15:00:00+00:00,0.0
2024-04-26 16:00:00+00:00,0.0
2024-04-26 17:00:00+00:00,0.0
2024-04-26 18:00:00+00:00,0.0
2024-04-26 19:00:00+00:00,0.0
2024-04-29 13:00:00+00:00,0.0
2024-04-29 14:00:00+00:00,0.0
2024-04-29 15:00:00+00:00,0.0
2024-04-29 16:00:00+00:00,0.0
2024-04-29 17:00:00+00:00,0.0
2024-04-29 18:00:00+00:00,0.0
2024-04-29 19:00:00+00:00,0.0
2024-04-30 13:00:00+00:00,0.0
2024-04-30 14:00:00+00:00,0.0
2024-04-30 15:00:00+00:00,0.0
2024-04-30 16:00:00+00:00,0.0
2024-04-30 17:00:00+00:00,0.0
2024-04-30 18:00:00+00:00,0.0
2024-04-30 19:00:00+00:00,0.0
2024-05-01 13:00:00+00:00,0.0
2024-05-01 14:00:00+00:00,0.0
2024-05-01 15:00:00+00:00,0.0
2024-05-01 16:00:00+00:00,0.0
2024-05-01 17:00:00+00:00,0.0
2024-05-01 18:00:00+00:00,0.0
2024-05-01 19:00:00+00:00,0.0
2024-05-02 13:00:00+00:00,0.0
2024-05-02 14:00:00+00:00,0.0
2024-05-02 15:00:00+00:00,0.0
2024-05-02 16:00:00+00:00,0.0
2024-05-02 17:00:00+00:00,0.0
2024-05-02 18:00:00+00:00,0.0
2024-05-02 19:00:00+00:00,0.0
2024-05-03 13:00:00+00:00,0.0
2024-05-03 14:00:00+00:00,0.0
2024-05-03 15:00:00+00:00,0.0
2024-05-03 16:00:00+00:00,0.0
2024-05-03 17:00:00+00:00,0.0
2024-05-03 18:00:00+00:00,0.0
2024-05-03 19:00:00+00:00,0.0
2024-05-06 13:00:00+00:00,0.0
2024-05-06 14:00:00+00:00,0.0
2024-05-06 15:00:00+00:00,0.0
2024-05-06 16:00:00+00:00,0.0
2024-05-06 17:00:00+00:00,0.0
2024-05-06 18:00:00+00:00,0.0
2024-05-06 19:00:00+00:00,0.0
2024-05-07 13:00:00+00:00,0.0
2024-05-07 14:00:00+00:00,0.0
2024-05-07 15:00:00+00:00,0.0
2024-05-07 16:00:00+00:00,0.0
2024-05-07 17:00:00+00:00,0.0
2024-05-07 18:00:00+00:00,0.0
2024-05-07 19:00:00+00:00,0.0
2024-05-08 13:00:00+00:00,0.0
2024-05-08 14:00:00+00:00,0.0
2024-05-08 15:00:00+00:00,0.0
2024-05-08 16:00:00+00:00,0.0
2024-05-08 17:00:00+00:00,0.0
2024-05-08 18:00:00+00:00,0.0
2024-05-08 19:00:00+00:00,0.0
2024-05-09 13:00:00+00:00,0.0
2024-05-09 14:00:00+00:00,0.0
2024-05-09 15:00:00+00:00,0.0
2024-05-09 16:00:00+00:00,0.0
2024-05-09 17:00:00+00:00,0.0
2024-05-09 18:00:00+00:00,0.0
2024-05-09 19:00:00+00:00,0.0
2024-05-10 13:00:00+00:00,0.0
2024-05-10 14:00:00+00:00,0.0
2024-05-10 15:00:00+00:00,0.0
2024-05-10 16:00:00+00:00,0.0
2024-05-10 17:00:00+00:00,0.0
2024-05-10 18:00:00+00:00,0.0
2024-05-10 19:00:00+00:00,0.0
2024-05-13 13:00:00+00:00,0.0
2024-05-13 14:00:00+00:00,0.0
2024-05-13 15:00:00+00:00,0.0
2024-05-13 16:00:00+00:00,0.0
2024-05-13 17:00:00+00:00,0.0
2024-05-13 18:00:00+00:00,0.0
2024-05-13 19:00:00+00:00,0.0
2024-05-14 13:00:00+00:00,0.0
2024-05-14 14:00:00+00:00,0.0
2024-05-14 15:00:00+00:00,0.0
2024-05-14 16:00:00+00:00,0.0
2024-05-14 17:00:00+00:00,0.0
2024-05-14 18:00:00+00:00,0.0
2024-05-14 19:00:00+00:00,0.0
2024-05-15 13:00:00+00:00,0.0
2024-05-15 14:00:00+00:00,0.0
2024-05-15 15:00:00+00:00,0.0
2024-05-15 16:00:00+00:00,0.0
2024-05-15 17:00:00+00:00,0.0
2024-05-15 18:00:00+00:00,0.0
2024-05-15 19:00:00+00:00,0.0
2024-05-16 13:00:00+00:00,0.0
2024-05-16 14:00:00+00:00,0.0
2024-05-16 15:00:00+00:00,0.0
2024-05-16 16:00:00+00:00,0.0
2024-05-16 17:00:00+00:00,0.0
2024-05-16 18:00:00+00:00,0.0
2024-05-16 19:00:00+00:00,0.0
2024-05-17 13:00:00+00:00,0.0
2024-05-17 14:00:00+00:00,0.0
2024-05-17 15:00:00+00:00,0.0
2024-05-17 16:00:00+00:00,0.0
2024-05-17 17:00:00+00:00,0.0
2024-05-17 18:00:00+00:00,0.0
2024-05-17 19:00:00+00:00,0.0
2024-05-20 13:00:00+00:00,0.0
2024-05-20 14:00:00+00:00,0.0
2024-05-20 15:00:00+00:00,0.0
2024-05-20 16:00:00+00:00,0.0
2024-05-20 17:00:00+00:00,0.0
2024-05-20 18:00:00+00:00,0.0
2024-05-20 19:00:00+00:00,0.0
2024-05-21 13:00:00+00:00,0.0
2024-05-21 14:00:00+00:00,0.0
2024-05-21 15:00:00+00:00,0.0
2024-05-21 16:00:00+00:00,0.0
2024-05-21 17:00:00+00:00,0.0
2024-05-21 18:00:00+00:00,0.0
2024-05-21 19:00:00+00:00,0.0
2024-05-22 13:00:00+00:00,0.0
2024-05-22 14:00:00+00:00,0.0
2024-05-22 15:00:00+00:00,0.0
2024-05-22 16:00:00+00:00,0.0
2024-05-22 17:00:00+00:00,0.0
2024-05-22 18:00:00+00:00,0.0
2024-05-22 19:00:00+00:00,0.0
2024-05-23 13:00:00+00:00,0.0
2024-05-23 14:00:00+00:00,0.0
2024-05-23 15:00:00+00:00,0.0
2024-05-23 16:00:00+00:00,0.0
2024-05-23 17:00:00+00:00,0.0
2024-05-23 18:00:00+00:00,0.0
2024-05-23 19:00:00+00:00,0.0
2024-05-24 13:00:00+00:00,0.0
2024-05-24 14:00:00+00:00,0.0
2024-05-24 15:00:00+00:00,0.0
2024-05-24 16:00:00+00:00,0.0
2024-05-24 17:00:00+00:00,0.0
2024-05-24 18:00:00+00:00,0.0
2024-05-24 19:00:00+00:00,0.0
2024-05-28 13:00:00+00:00,0.0
2024-05-28 14:00:00+00:00,0.0
2024-05-28 15:00:00+00:00,0.0
2024-05-28 16:00:00+00:00,0.0
2024-05-28 17:00:00+00:00,0.0
2024-05-28 18:00:00+00:00,0.0
2024-05-28 19:00:00+00:00,0.0
2024-05-29 13:00:00+00:00,0.0
2024-05-29 14:00:00+00:00,0.0
2024-05-29 15:00:00+00:00,0.0
2024-05-29 16:00:00+00:00,0.0
2024-05-29 17:00:00+00:00,0.0
2024-05-29 18:00:00+00:00,0.0
2024-05-29 19:00:00+00:00,0.0
2024-05-30 13:00:00+00:00,0.0
2024-05-30 14:00:00+00:00,0.0
2024-05-30 15:00:00+00:00,0.0
2024-05-30 16:00:00+00:00,0.0
2024-05-30 17:00:00+00:00,0.0
2024-05-30 18:00:00+00:00,0.0
2024-05-30 19:00:00+00:00,0.0
2024-05-31 13:00:00+00:00,0.0
2024-05-31 14:00:00+00:00,0.0
2024-05-31 15:00:00+00:00,0.0
2024-05-31 16:00:00+00:00,0.0
2024-05-31 17:00:00+00:00,0.0
2024-05-31 18:00:00+00:00,0.0
2024-05-31 19:00:00+00:00,0.0
2024-06-03 13:00:00+00:00,0.0
2024-06-03 14:00:00+00:00,0.0
2024-06-03 15:00:00+00:00,0.0
2024-06-03 16:00:00+00:00,0.0
2024-06-03 17:00:00+00:00,0.0
2024-06-03 18:00:00+00:00,0.0
2024-06-03 19:00:00+00:00,0.0
2024-06-04 13:00:00+00:00,0.0
2024-06-04 14:00:00+00:00,0.0
2024-06-04 15:00:00+00:00,0.0
2024-06-04 16:00:00+00:00,0.0
2024-06-04 17:00:00+00:00,0.0
2024-06-04 18:00:00+00:00,0.0
2024-06-04 19:00:00+00:00,0.0
2024-06-05 13:00:00+00:00,0.0
2024-06-05 14:00:00+00:00,0.0
2024-06-05 15:00:00+00:00,0.0
2024-06-05 16:00:00+00:00,0.0
2024-06-05 17:00:00+00:00,0.0
2024-06-05 18:00:00+00:00,0.0
2024-06-05 19:00:00+00:00,0.0
2024-06-06 13:00:00+00:00,0.0
2024-06-06 14:00:00+00:00,0.0
2024-06-06 15:00:00+00:00,0.0
2024-06-06 16:00:00+00:00,0.0
2024-06-06 17:00:00+00:00,0.0
2024-06-06 18:00:00+00:00,0.0
2024-06-06 19:00:00+00:00,0.0
2024-06-07 13:00:00+00:00,0.0
2024-06-07 14:00:00+00:00,0.0
2024-06-07 15:00:00+00:00,0.0
2024-06-07 16:00:00+00:00,0.0
2024-06-07 17:00:00+00:00,0.0
2024-06-07 18:00:00+00:00,0.0
2024-06-07 19:00:00+00:00,0.0
2024-06-10 13:00:00+00:00,0.0
2024-06-10 14:00:00+00:00,0.0
2024-06-10 15:00:00+00:00,0.0
2024-06-10 16:00:00+00:00,0.0
2024-06-10 17:00:00+00:00,0.0
2024-06-10 18:00:00+00:00,0.0
2024-06-10 19:00:00+00:00,0.0
2024-06-11 13:00:00+00:00,0.0
2024-06-11 14:00:00+00:00,0.0
2024-06-11 15:00:00+00:00,0.0
2024-06-11 16:00:00+00:00,0.0
2024-06-11 17:00:00+00:00,0.0
2024-06-11 18:00:00+00:00,0.0
2024-06-11 19:00:00+00:00,0.0
2024-06-12 13:00:00+00:00,0.0
2024-06-12 14:00:00+00:00,0.0
2024-06-12 15:00:00+00:00,0.0
2024-06-12 16:00:00+00:00,0.0
2024-06-12 17:00:00+00:00,0.0
2024-06-12 18:00:00+00:00,0.0
2024-06-12 19:00:00+00:00,0.0
2024-06-13 13:00:00+00:00,0.0
2024-06-13 14:00:00+00:00,0.0
2024-06-13 15:00:00+00:00,0.0
2024-06-13 16:00:00+00:00,0.0
2024-06-13 17:00:00+00:00,0.0
2024-06-13 18:00:00+00:00,0.0
2024-06-13 19:00:00+00:00,0.0
2024-06-14 13:00:00+00:00,0.0
2024-06-14 14:00:00+00:00,0.0
2024-06-14 15:00:00+00:00,0.0
2024-06-14 16:00:00+00:00,0.0
2024-06-14 17:00:00+00:00,0.0
2024-06-14 18:00:00+00:00,0.0
2024-06-14 19:00:00+00:00,0.0
2024-06-17 13:00:00+00:00,0.0
2024-06-17 14:00:00+00:00,0.0
2024-06-17 15:00:00+00:00,0.0
2024-06-17 16:00:00+00:00,0.0
2024-06-17 17:00:00+00:00,0.0
2024-06-17 18:00:00+00:00,0.0
2024-06-17 19:00:00+00:00,0.0
2024-06-18 13:00:00+00:00,0.0
2024-06-18 14:00:00+00:00,0.0
2024-06-18 15:00:00+00:00,0.0
2024-06-18 16:00:00+00:00,0.0
2024-06-18 17:00:00+00:00,0.0
2024-06-18 18:00:00+00:00,0.0
2024-06-18 19:00:00+00:00,0.0
2024-06-20 13:00:00+00:00,0.0
2024-06-20 14:00:00+00:00,0.0
2024-06-20 15:00:00+00:00,0.0
2024-06-20 16:00:00+00:00,0.0
2024-06-20 17:00:00+00:00,0.0
2024-06-20 18:00:00+00:00,0.0
2024-06-20 19:00:00+00:00,0.0
2024-06-21 13:00:00+00:00,0.0
2024-06-21 14:00:00+00:00,0.0
2024-06-21 15:00:00+00:00,0.0
2024-06-21 16:00:00+00:00,0.0
2024-06-21 17:00:00+00:00,0.0
2024-06-21 18:00:00+00:00,0.0
2024-06-21 19:00:00+00:00,0.0
2024-06-24 13:00:00+00:00,0.0
2024-06-24 14:00:00+00:00,0.0
2024-06-24 15:00:00+00:00,0.0
2024-06-24 16:00:00+00:00,0.0
2024-06-24 17:00:00+00:00,0.0
2024-06-24 18:00:00+00:00,0.0
2024-06-24 19:00:00+00:00,0.0
2024-06-25 13:00:00+00:00,0.0
2024-06-25 14:00:00+00:00,0.0
2024-06-25 15:00:00+00:00,0.0
2024-06-25 16:00:00+00:00,0.0
2024-06-25 17:00:00+00:00,0.0
2024-06-25 18:00:00+00:00,0.0
2024-06-25 19:00:00+00:00,0.0
2024-06-26 13:00:00+00:00,0.0
2024-06-26 14:00:00+00:00,0.0
2024-06-26 15:00:00+00:00,0.0
2024-06-26 16:00:00+00:00,0.0
2024-06-26 17:00:00+00:00,0.0
2024-06-26 18:00:00+00:00,0.0
2024-06-26 19:00:00+00:00,0.0
2024-06-27 13:00:00+00:00,0.0
2024-06-27 14:00:00+00:00,0.0
2024-06-27 15:00:00+00:00,0.0
2024-06-27 16:00:00+00:00,0.0
2024-06-27 17:00:00+00:00,0.0
2024-06-27 18:00:00+00:00,0.0
2024-06-27 19:00:00+00:00,0.0
2024-06-28 13:00:00+00:00,0.0
2024-06-28 14:00:00+00:00,0.0
2024-06-28 15:00:00+00:00,0.0
2024-06-28 16:00:00+00:00,0.0
2024-06-28 17:00:00+00:00,0.0
2024-06-28 18:00:00+00:00,0.0
2024-06-28 19:00:00+00:00,0.0
2024-07-01 13:00:00+00:00,0.0
2024-07-01 14:00:00+00:00,0.0
2024-07-01 15:00:00+00:00,0.0
2024-07-01 16:00:00+00:00,0.0
2024-07-01 17:00:00+00:00,0.0
2024-07-01 18:00:00+00:00,0.0
2024-07-01 19:00:00+00:00,0.0
2024-07-02 13:00:00+00:00,0.0
2024-07-02 14:00:00+00:00,0.0
2024-07-02 15:00:00+00:00,0.0
2024-07-02 16:00:00+00:00,0.0
2024-07-02 17:00:00+00:00,0.0
2024-07-02 18:00:00+00:00,0.0
2024-07-02 19:00:00+00:00,0.0
2024-07-03 13:00:00+00:00,0.0
2024-07-03 14:00:00+00:00,0.0
2024-07-03 15:00:00+00:00,0.0
2024-07-05 13:00:00+00:00,0.0
2024-07-05 14:00:00+00:00,0.0
2024-07-05 15:00:00+00:00,0.0
2024-07-05 16:00:00+00:00,0.0
2024-07-05 17:00:00+00:00,0.0
2024-07-05 18:00:00+00:00,0.0
2024-07-05 19:00:00+00:00,0.0
2024-07-08 13:00:00+00:00,0.0
2024-07-08 14:00:00+00:00,0.0
2024-07-08 15:00:00+00:00,0.0
2024-07-08 16:00:00+00:00,0.0
2024-07-08 17:00:00+00:00,0.0
2024-07-08 18:00:00+00:00,0.0
2024-07-08 19:00:00+00:00,0.0
2024-07-09 13:00:00+00:00,0.0
2024-07-09 14:00:00+00:00,0.0
2024-07-09 15:00:00+00:00,0.0
2024-07-09 16:00:00+00:00,0.0
2024-07-09 17:00:00+00:00,0.0
2024-07-09 18:00:00+00:00,0.0
2024-07-09 19:00:00+00:00,0.0
2024-07-10 13:00:00+00:00,0.0
2024-07-10 14:00:00+00:00,0.0
2024-07-10 15:00:00+00:00,0.0
2024-07-10 16:00:00+00:00,0.0
2024-07-10 17:00:00+00:00,0.0
2024-07-10 18:00:00+00:00,0.0
2024-07-10 19:00:00+00:00,0.0
2024-07-11 13:00:00+00:00,0.0
2024-07-11 14:00:00+00:00,0.0
2024-07-11 15:00:00+00:00,0.0
2024-07-11 16:00:00+00:00,0.0
2024-07-11 17:00:00+00:00,0.0
2024-07-11 18:00:00+00:00,0.0
2024-07-11 19:00:00+00:00,0.0
2024-07-12 13:00:00+00:00,0.0
2024-07-12 14:00:00+00:00,0.0
2024-07-12 15:00:00+00:00,0.0
2024-07-12 16:00:00+00:00,0.0
2024-07-12 17:00:00+00:00,0.0
2024-07-12 18:00:00+00:00,0.0
2024-07-12 19:00:00+00:00,0.0
2024-07-15 13:00:00+00:00,0.0
2024-07-15 14:00:00+00:00,0.0
2024-07-15 15:00:00+00:00,0.0
2024-07-15 16:00:00+00:00,0.0
2024-07-15 17:00:00+00:00,0.0
2024-07-15 18:00:00+00:00,0.0
2024-07-15 19:00:00+00:00,0.0
2024-07-16 13:00:00+00:00,0.0
2024-07-16 14:00:00+00:00,0.0
2024-07-16 15:00:00+00:00,0.0
2024-07-16 16:00:00+00:00,0.0
2024-07-16 17:00:00+00:00,0.0
2024-07-16 18:00:00+00:00,0.0
2024-07-16 19:00:00+00:00,0.0
2024-07-17 13:00:00+00:00,0.0
2024-07-17 14:00:00+00:00,0.0
2024-07-17 15:00:00+00:00,0.0
2024-07-17 16:00:00+00:00,0.0
2024-07-17 17:00:00+00:00,0.0
2024-07-17 18:00:00+00:00,0.0
2024-07-17 19:00:00+00:00,0.0
2024-07-18 13:00:00+00:00,0.0
2024-07-18 14:00:00+00:00,0.0
2024-07-18 15:00:00+00:00,0.0
2024-07-18 16:00:00+00:00,0.0
2024-07-18 17:00:00+00:00,0.0
2024-07-18 18:00:00+00:00,0.0
2024-07-18 19:00:00+00:00,0.0
2024-07-19 13:00:00+00:00,0.0
2024-07-19 14:00:00+00:00,0.0
2024-07-19 15:00:00+00:00,0.0
2024-07-19 16:00:00+00:00,0.0
2024-07-19 17:00:00+00:00,0.0
2024-07-19 18:00:00+00:00,0.0
2024-07-19 19:00:00+00:00,0.0
2024-07-22 13:00:00+00:00,0.0
2024-07-22 14:00:00+00:00,0.0
2024-07-22 15:00:00+00:00,0.0
2024-07-22 16:00:00+00:00,0.0
2024-07-22 17:00:00+00:00,0.0
2024-07-22 18:00:00+00:00,0.0
2024-07-22 19:00:00+00:00,0.0
2024-07-23 13:00:00+00:00,0.0
2024-07-23 14:00:00+00:00,0.0
2024-07-23 15:00:00+00:00,0.0
2024-07-23 16:00:00+00:00,0.0
2024-07-23 17:00:00+00:00,0.0
2024-07-23 18:00:00+00:00,0.0
2024-07-23 19:00:00+00:00,0.0
2024-07-24 13:00:00+00:00,0.0
2024-07-24 14:00:00+00:00,0.0
2024-07-24 15:00:00+00:00,0.0
2024-07-24 16:00:00+00:00,0.0
2024-07-24 17:00:00+00:00,0.0
2024-07-24 18:00:00+00:00,0.0
2024-07-24 19:00:00+00:00,0.0
2024-07-25 13:00:00+00:00,0.0
2024-07-25 14:00:00+00:00,0.0
2024-07-25 15:00:00+00:00,0.0
2024-07-25 16:00:00+00:00,0.0
2024-07-25 17:00:00+00:00,0.0
2024-07-25 18:00:00+00:00,0.0
2024-07-25 19:00:00+00:00,0.0
2024-07-26 13:00:00+00:00,0.0
2024-07-26 14:00:00+00:00,0.0
2024-07-26 15:00:00+00:00,0.0
2024-07-26 16:00:00+00:00,0.0
2024-07-26 17:00:00+00:00,0.0
2024-07-26 18:00:00+00:00,0.0
2024-07-26 19:00:00+00:00,0.0
2024-07-29 13:00:00+00:00,0.0
2024-07-29 14:00:00+00:00,0.0
2024-07-29 15:00:00+00:00,0.0
2024-07-29 16:00:00+00:00,0.0
2024-07-29 17:00:00+00:00,0.0
2024-07-29 18:00:00+00:00,0.0
2024-07-29 19:00:00+00:00,0.0
2024-07-30 13:00:00+00:00,0.0
2024-07-30 14:00:00+00:00,0.0
2024-07-30 15:00:00+00:00,0.0
2024-07-30 16:00:00+00:00,0.0
2024-07-30 17:00:00+00:00,0.0
2024-07-30 18:00:00+00:00,0.0
2024-07-30 19:00:00+00:00,0.0
2024-07-31 13:00:00+00:00,0.0
2024-07-31 14:00:00+00:00,0.0
2024-07-31 15:00:00+00:00,0.0
2024-07-31 16:00:00+00:00,0.0
2024-07-31 17:00:00+00:00,0.0
2024-07-31 18:00:00+00:00,0.0
2024-07-31 19:00:00+00:00,0.0
2024-08-01 13:00:00+00:00,0.0
2024-08-01 14:00:00+00:00,0.0
2024-08-01 15:00:00+00:00,0.0
2024-08-01 16:00:00+00:00,0.0
2024-08-01 17:00:00+00:00,0.0
2024-08-01 18:00:00+00:00,0.0
2024-08-01 19:00:00+00:00,0.0
2024-08-02 13:00:00+00:00,0.0
2024-08-02 14:00:00+00:00,0.0
2024-08-02 15:00:00+00:00,0.0
2024-08-02 16:00:00+00:00,0.0
2024-08-02 17:00:00+00:00,0.0
2024-08-02 18:00:00+00:00,0.0
2024-08-02 19:00:00+00:00,0.0
2024-08-05 13:00:00+00:00,0.0
2024-08-05 14:00:00+00:00,0.0
2024-08-05 15:00:00+00:00,0.0
2024-08-05 16:00:00+00:00,0.0
2024-08-05 17:00:00+00:00,0.0
2024-08-05 18:00:00+00:00,0.0
2024-08-05 19:00:00+00:00,0.0
2024-08-06 13:00:00+00:00,0.0
2024-08-06 14:00:00+00:00,0.0
2024-08-06 15:00:00+00:00,0.0
2024-08-06 16:00:00+00:00,0.0
2024-08-06 17:00:00+00:00,0.0
2024-08-06 18:00:00+00:00,0.0
2024-08-06 19:00:00+00:00,0.0
2024-08-07 13:00:00+00:00,0.0
2024-08-07 14:00:00+00:00,0.0
2024-08-07 15:00:00+00:00,0.0
2024-08-07 16:00:00+00:00,0.0
2024-08-07 17:00:00+00:00,0.0
2024-08-07 18:00:00+00:00,0.0
2024-08-07 19:00:00+00:00,0.0
2024-08-08 13:00:00+00:00,0.0
2024-08-08 14:00:00+00:00,0.0
2024-08-08 15:00:00+00:00,0.0
2024-08-08 16:00:00+00:00,0.0
2024-08-08 17:00:00+00:00,0.0
2024-08-08 18:00:00+00:00,0.0
2024-08-08 19:00:00+00:00,0.0
2024-08-09 13:00:00+00:00,0.0
2024-08-09 14:00:00+00:00,0.0
2024-08-09 15:00:00+00:00,0.0
2024-08-09 16:00:00+00:00,0.0
2024-08-09 17:00:00+00:00,0.0
2024-08-09 18:00:00+00:00,0.0
2024-08-09 19:00:00+00:00,0.0
2024-08-12 13:00:00+00:00,0.0
2024-08-12 14:00:00+00:00,0.0
2024-08-12 15:00:00+00:00,0.0
2024-08-12 16:00:00+00:00,0.0
2024-08-12 17:00:00+00:00,0.0
2024-08-12 18:00:00+00:00,0.0
2024-08-12 19:00:00+00:00,0.0
2024-08-13 13:00:00+00:00,0.0
2024-08-13 14:00:00+00:00,0.0
2024-08-13 15:00:00+00:00,0.0
2024-08-13 16:00:00+00:00,0.0
2024-08-13 17:00:00+00:00,0.0
2024-08-13 18:00:00+00:00,0.0
2024-08-13 19:00:00+00:00,0.0
2024-08-14 13:00:00+00:00,0.0
2024-08-14 14:00:00+00:00,0.0
2024-08-14 15:00:00+00:00,0.0
2024-08-14 16:00:00+00:00,0.0
2024-08-14 17:00:00+00:00,0.0
2024-08-14 18:00:00+00:00,0.0
2024-08-14 19:00:00+00:00,0.0
2024-08-15 13:00:00+00:00,0.0
2024-08-15 14:00:00+00:00,0.0
2024-08-15 15:00:00+00:00,0.0
2024-08-15 16:00:00+00:00,0.0
2024-08-15 17:00:00+00:00,0.0
2024-08-15 18:00:00+00:00,0.0
2024-08-15 19:00:00+00:00,0.0
2024-08-16 13:00:00+00:00,0.0
2024-08-16 14:00:00+00:00,0.0
2024-08-16 15:00:00+00:00,0.0
2024-08-16 16:00:00+00:00,0.0
2024-08-16 17:00:00+00:00,0.0
2024-08-16 18:00:00+00:00,0.0
2024-08-16 19:00:00+00:00,0.0
2024-08-19 13:00:00+00:00,0.0
2024-08-19 14:00:00+00:00,0.0
2024-08-19 15:00:00+00:00,0.0
2024-08-19 16:00:00+00:00,0.0
2024-08-19 17:00:00+00:00,0.0
2024-08-19 18:00:00+00:00,0.0
2024-08-19 19:00:00+00:00,0.0
2024-08-20 13:00:00+00:00,0.0
2024-08-20 14:00:00+00:00,0.0
2024-08-20 15:00:00+00:00,0.0
2024-08-20 16:00:00+00:00,0.0
2024-08-20 17:00:00+00:00,0.0
2024-08-20 18:00:00+00:00,0.0
2024-08-20 19:00:00+00:00,0.0
2024-08-21 13:00:00+00:00,0.0
2024-08-21 14:00:00+00:00,0.0
2024-08-21 15:00:00+00:00,0.0
2024-08-21 16:00:00+00:00,0.0
2024-08-21 17:00:00+00:00,0.0
2024-08-21 18:00:00+00:00,0.0
2024-08-21 19:00:00+00:00,0.0
2024-08-22 13:00:00+00:00,0.0
2024-08-22 14:00:00+00:00,0.0
2024-08-22 15:00:00+00:00,0.0
2024-08-22 16:00:00+00:00,0.0
2024-08-22 17:00:00+00:00,0.0
2024-08-22 18:00:00+00:00,0.0
2024-08-22 19:00:00+00:00,0.0
2024-08-23 13:00:00+00:00,0.0
2024-08-23 14:00:00+00:00,0.0
2024-08-23 15:00:00+00:00,0.0
2024-08-23 16:00:00+00:00,0.0
2024-08-23 17:00:00+00:00,0.0
2024-08-23 18:00:00+00:00,0.0
2024-08-23 19:00:00+00:00,0.0
2024-08-26 13:00:00+00:00,0.0
2024-08-26 14:00:00+00:00,0.0
2024-08-26 15:00:00+00:00,0.0
2024-08-26 16:00:00+00:00,0.0
2024-08-26 17:00:00+00:00,0.0
2024-08-26 18:00:00+00:00,0.0
2024-08-26 19:00:00+00:00,0.0
2024-08-27 13:00:00+00:00,0.0
2024-08-27 14:00:00+00:00,0.0
2024-08-27 15:00:00+00:00,0.0
2024-08-27 16:00:00+00:00,0.0
2024-08-27 17:00:00+00:00,0.0
2024-08-27 18:00:00+00:00,0.0
2024-08-27 19:00:00+00:00,0.0
2024-08-28 13:00:00+00:00,0.0
2024-08-28 14:00:00+00:00,0.0
2024-08-28 15:00:00+00:00,0.0
2024-08-28 16:00:00+00:00,0.0
2024-08-28 17:00:00+00:00,0.0
2024-08-28 18:00:00+00:00,0.0
2024-08-28 19:00:00+00:00,0.0
2024-08-29 13:00:00+00:00,0.0
2024-08-29 14:00:00+00:00,0.0
2024-08-29 15:00:00+00:00,0.0
2024-08-29 16:00:00+00:00,0.0
2024-08-29 17:00:00+00:00,0.0
2024-08-29 18:00:00+00:00,0.0
2024-08-29 19:00:00+00:00,0.0
2024-08-30 13:00:00+00:00,0.0
2024-08-30 14:00:00+00:00,0.0
2024-08-30 15:00:00+00:00,0.0
2024-08-30 16:00:00+00:00,0.0
2024-08-30 17:00:00+00:00,0.0
2024-08-30 18:00:00+00:00,0.0
2024-08-30 19:00:00+00:00,0.0
2024-09-03 13:00:00+00:00,0.0
2024-09-03 14:00:00+00:00,0.0
2024-09-03 15:00:00+00:00,0.0
2024-09-03 16:00:00+00:00,0.0
2024-09-03 17:00:00+00:00,0.0
2024-09-03 18:00:00+00:00,0.0
2024-09-03 19:00:00+00:00,0.0
2024-09-04 13:00:00+00:00,0.0
2024-09-04 14:00:00+00:00,0.0
2024-09-04 15:00:00+00:00,0.0
2024-09-04 16:00:00+00:00,0.0
2024-09-04 17:00:00+00:00,0.0
2024-09-04 18:00:00+00:00,0.0
2024-09-04 19:00:00+00:00,0.0
2024-09-05 13:00:00+00:00,0.0
2024-09-05 14:00:00+00:00,0.0
2024-09-05 15:00:00+00:00,0.0
2024-09-05 16:00:00+00:00,0.0
2024-09-05 17:00:00+00:00,0.0
2024-09-05 18:00:00+00:00,0.0
2024-09-05 19:00:00+00:00,0.0
2024-09-06 13:00:00+00:00,0.0
2024-09-06 14:00:00+00:00,0.0
2024-09-06 15:00:00+00:00,0.0
2024-09-06 16:00:00+00:00,0.0
2024-09-06 17:00:00+00:00,0.0
2024-09-06 18:00:00+00:00,0.0
2024-09-06 19:00:00+00:00,0.0
2024-09-09 13:00:00+00:00,0.0
2024-09-09 14:00:00+00:00,0.0
2024-09-09 15:00:00+00:00,0.0
2024-09-09 16:00:00+00:00,0.0
2024-09-09 17:00:00+00:00,0.0
2024-09-09 18:00:00+00:00,0.0
2024-09-09 19:00:00+00:00,0.0
2024-09-10 13:00:00+00:00,0.0
2024-09-10 14:00:00+00:00,0.0
2024-09-10 15:00:00+00:00,0.0
2024-09-10 16:00:00+00:00,0.0
2024-09-10 17:00:00+00:00,0.0
2024-09-10 18:00:00+00:00,0.0
2024-09-10 19:00:00+00:00,0.0
2024-09-11 13:00:00+00:00,0.0
2024-09-11 14:00:00+00:00,0.0
2024-09-11 15:00:00+00:00,0.0
2024-09-11 16:00:00+00:00,0.0
2024-09-11 17:00:00+00:00,0.0
2024-09-11 18:00:00+00:00,0.0
2024-09-11 19:00:00+00:00,0.0
2024-09-12 13:00:00+00:00,0.0
2024-09-12 14:00:00+00:00,0.0
2024-09-12 15:00:00+00:00,0.0
2024-09-12 16:00:00+00:00,0.0
2024-09-12 17:00:00+00:00,0.0
2024-09-12 18:00:00+00:00,0.0
2024-09-12 19:00:00+00:00,0.0
2024-09-13 13:00:00+00:00,0.0
2024-09-13 14:00:00+00:00,0.0
2024-09-13 15:00:00+00:00,0.0
2024-09-13 16:00:00+00:00,0.0
2024-09-13 17:00:00+00:00,0.0
2024-09-13 18:00:00+00:00,0.0
2024-09-13 19:00:00+00:00,0.0
2024-09-16 13:00:00+00:00,0.0
2024-09-16 14:00:00+00:00,0.0
2024-09-16 15:00:00+00:00,0.0
2024-09-16 16:00:00+00:00,0.0
2024-09-16 17:00:00+00:00,0.0
2024-09-16 18:00:00+00:00,0.0
2024-09-16 19:00:00+00:00,0.0
2024-09-17 13:00:00+00:00,0.0
2024-09-17 14:00:00+00:00,0.0
2024-09-17 15:00:00+00:00,0.0
2024-09-17 16:00:00+00:00,0.0
2024-09-17 17:00:00+00:00,0.0
2024-09-17 18:00:00+00:00,0.0
2024-09-17 19:00:00+00:00,0.0
2024-09-18 13:00:00+00:00,0.0
2024-09-18 14:00:00+00:00,0.0
2024-09-18 15:00:00+00:00,0.0
2024-09-18 16:00:00+00:00,0.0
2024-09-18 17:00:00+00:00,0.0
2024-09-18 18:00:00+00:00,0.0
2024-09-18 19:00:00+00:00,0.0
2024-09-19 13:00:00+00:00,0.0
2024-09-19 14:00:00+00:00,0.0
2024-09-19 15:00:00+00:00,0.0
2024-09-19 16:00:00+00:00,0.0
2024-09-19 17:00:00+00:00,0.0
2024-09-19 18:00:00+00:00,0.0
2024-09-19 19:00:00+00:00,0.0
2024-09-20 13:00:00+00:00,0.0
2024-09-20 14:00:00+00:00,0.0
2024-09-20 15:00:00+00:00,0.0
2024-09-20 16:00:00+00:00,0.0
2024-09-20 17:00:00+00:00,0.0
2024-09-20 18:00:00+00:00,0.0
2024-09-20 19:00:00+00:00,0.0
2024-09-23 13:00:00+00:00,0.0
2024-09-23 14:00:00+00:00,0.0
2024-09-23 15:00:00+00:00,0.0
2024-09-23 16:00:00+00:00,0.0
2024-09-23 17:00:00+00:00,0.0
2024-09-23 18:00:00+00:00,0.0
2024-09-23 19:00:00+00:00,0.0
2024-09-24 13:00:00+00:00,0.0
2024-09-24 14:00:00+00:00,0.0
2024-09-24 15:00:00+00:00,0.0
2024-09-24 16:00:00+00:00,0.0
2024-09-24 17:00:00+00:00,0.0
2024-09-24 18:00:00+00:00,0.0
2024-09-24 19:00:00+00:00,0.0
2024-09-25 13:00:00+00:00,0.0
2024-09-25 14:00:00+00:00,0.0
2024-09-25 15:00:00+00:00,0.0
2024-09-25 16:00:00+00:00,0.0
2024-09-25 17:00:00+00:00,0.0
2024-09-25 18:00:00+00:00,0.0
2024-09-25 19:00:00+00:00,0.0
2024-09-26 13:00:00+00:00,0.0
2024-09-26 14:00:00+00:00,0.0
2024-09-26 15:00:00+00:00,0.0
2024-09-26 16:00:00+00:00,0.0
2024-09-26 17:00:00+00:00,0.0
2024-09-26 18:00:00+00:00,0.0
2024-09-26 19:00:00+00:00,0.0
2024-09-27 13:00:00+00:00,0.0
2024-09-27 14:00:00+00:00,0.0
2024-09-27 15:00:00+00:00,0.0
2024-09-27 16:00:00+00:00,0.0
2024-09-27 17:00:00+00:00,0.0
2024-09-27 18:00:00+00:00,0.0
2024-09-27 19:00:00+00:00,0.0
2024-09-30 13:00:00+00:00,0.0
2024-09-30 14:00:00+00:00,0.0
2024-09-30 15:00:00+00:00,0.0
2024-09-30 16:00:00+00:00,0.0
2024-09-30 17:00:00+00:00,0.0
2024-09-30 18:00:00+00:00,0.0
2024-09-30 19:00:00+00:00,0.0
2024-10-01 13:00:00+00:00,0.0
2024-10-01 14:00:00+00:00,0.0
2024-10-01 15:00:00+00:00,0.0
2024-10-01 16:00:00+00:00,0.0
2024-10-01 17:00:00+00:00,0.0
2024-10-01 18:00:00+00:00,0.0
2024-10-01 19:00:00+00:00,0.0
2024-10-02 13:00:00+00:00,0.0
2024-10-02 14:00:00+00:00,0.0
2024-10-02 15:00:00+00:00,0.0
2024-10-02 16:00:00+00:00,0.0
2024-10-02 17:00:00+00:00,0.0
2024-10-02 18:00:00+00:00,0.0
2024-10-02 19:00:00+00:00,0.0
2024-10-03 13:00:00+00:00,0.0
2024-10-03 14:00:00+00:00,0.0
2024-10-03 15:00:00+00:00,0.0
2024-10-03 16:00:00+00:00,0.0
2024-10-03 17:00:00+00:00,0.0
2024-10-03 18:00:00+00:00,0.0
2024-10-03 19:00:00+00:00,0.0
2024-10-04 13:00:00+00:00,0.0
2024-10-04 14:00:00+00:00,0.0
2024-10-04 15:00:00+00:00,0.0
2024-10-04 16:00:00+00:00,0.0
2024-10-04 17:00:00+00:00,0.0
2024-10-04 18:00:00+00:00,0.0
2024-10-04 19:00:00+00:00,0.0
2024-10-07 13:00:00+00:00,0.0
2024-10-07 14:00:00+00:00,0.0
2024-10-07 15:00:00+00:00,0.0
2024-10-07 16:00:00+00:00,0.0
2024-10-07 17:00:00+00:00,0.0
2024-10-07 18:00:00+00:00,0.0
2024-10-07 19:00:00+00:00,0.0
2024-10-08 13:00:00+00:00,0.0
2024-10-08 14:00:00+00:00,0.0
2024-10-08 15:00:00+00:00,0.0
2024-10-08 16:00:00+00:00,0.0
2024-10-08 17:00:00+00:00,0.0
2024-10-08 18:00:00+00:00,0.0
2024-10-08 19:00:00+00:00,0.0
2024-10-09 13:00:00+00:00,0.0
2024-10-09 14:00:00+00:00,0.0
2024-10-09 15:00:00+00:00,0.0
2024-10-09 16:00:00+00:00,0.0
2024-10-09 17:00:00+00:00,0.0
2024-10-09 18:00:00+00:00,0.0
2024-10-09 19:00:00+00:00,0.0
2024-10-10 13:00:00+00:00,0.0
2024-10-10 14:00:00+00:00,0.0
2024-10-10 15:00:00+00:00,0.0
2024-10-10 16:00:00+00:00,0.0
2024-10-10 17:00:00+00:00,0.0
2024-10-10 18:00:00+00:00,0.0
2024-10-10 19:00:00+00:00,0.0
2024-10-11 13:00:00+00:00,0.0
2024-10-11 14:00:00+00:00,0.0
2024-10-11 15:00:00+00:00,0.0
2024-10-11 16:00:00+00:00,0.0
2024-10-11 17:00:00+00:00,0.0
2024-10-11 18:00:00+00:00,0.0
2024-10-11 19:00:00+00:00,0.0
2024-10-14 13:00:00+00:00,0.0
2024-10-14 14:00:00+00:00,0.0
2024-10-14 15:00:00+00:00,0.0
2024-10-14 16:00:00+00:00,0.0
2024-10-14 17:00:00+00:00,0.0
2024-10-14 18:00:00+00:00,0.0
2024-10-14 19:00:00+00:00,0.0
2024-10-15 13:00:00+00:00,0.0
2024-10-15 14:00:00+00:00,0.0
2024-10-15 15:00:00+00:00,0.0
2024-10-15 16:00:00+00:00,0.0
2024-10-15 17:00:00+00:00,0.0
2024-10-15 18:00:00+00:00,0.0
2024-10-15 19:00:00+00:00,0.0
2024-10-16 13:00:00+00:00,0.0
2024-10-16 14:00:00+00:00,0.0
2024-10-16 15:00:00+00:00,0.0
2024-10-16 16:00:00+00:00,0.0
2024-10-16 17:00:00+00:00,0.0
2024-10-16 18:00:00+00:00,0.0
2024-10-16 19:00:00+00:00,0.0
2024-10-17 13:00:00+00:00,0.0
2024-10-17 14:00:00+00:00,0.0
2024-10-17 15:00:00+00:00,0.0
2024-10-17 16:00:00+00:00,0.0
2024-10-17 17:00:00+00:00,0.0
2024-10-17 18:00:00+00:00,0.0
2024-10-17 19:00:00+00:00,0.0
2024-10-18 13:00:00+00:00,0.0
2024-10-18 14:00:00+00:00,0.0
2024-10-18 15:00:00+00:00,0.0
2024-10-18 16:00:00+00:00,0.0
2024-10-18 17:00:00+00:00,0.0
2024-10-18 18:00:00+00:00,0.0
2024-10-18 19:00:00+00:00,0.0
2024-10-21 13:00:00+00:00,0.0
2024-10-21 14:00:00+00:00,0.0
2024-10-21 15:00:00+00:00,0.0
2024-10-21 16:00:00+00:00,0.0
2024-10-21 17:00:00+00:00,0.0
2024-10-21 18:00:00+00:00,0.0
2024-10-21 19:00:00+00:00,0.0
2024-10-22 13:00:00+00:00,0.0
2024-10-22 14:00:00+00:00,0.0
2024-10-22 15:00:00+00:00,0.0
2024-10-22 16:00:00+00:00,0.0
2024-10-22 17:00:00+00:00,0.0
2024-10-22 18:00:00+00:00,0.0
2024-10-22 19:00:00+00:00,0.0
2024-10-23 13:00:00+00:00,0.0
2024-10-23 14:00:00+00:00,0.0
2024-10-23 15:00:00+00:00,0.0
2024-10-23 16:00:00+00:00,0.0
2024-10-23 17:00:00+00:00,0.0
2024-10-23 18:00:00+00:00,0.0
2024-10-23 19:00:00+00:00,0.0
2024-10-24 13:00:00+00:00,0.0
2024-10-24 14:00:00+00:00,0.0
2024-10-24 15:00:00+00:00,0.0
2024-10-24 16:00:00+00:00,0.0
2024-10-24 17:00:00+00:00,0.0
2024-10-24 18:00:00+00:00,0.0
2024-10-24 19:00:00+00:00,0.0
2024-10-25 13:00:00+00:00,0.0
2024-10-25 14:00:00+00:00,0.0
2024-10-25 15:00:00+00:00,0.0
2024-10-25 16:00:00+00:00,0.0
2024-10-25 17:00:00+00:00,0.0
2024-10-25 18:00:00+00:00,0.0
2024-10-25 19:00:00+00:00,0.0
2024-10-28 13:00:00+00:00,0.0
2024-10-28 14:00:00+00:00,0.0
2024-10-28 15:00:00+00:00,0.0
2024-10-28 16:00:00+00:00,0.0
2024-10-28 17:00:00+00:00,0.0
2024-10-28 18:00:00+00:00,0.0
2024-10-28 19:00:00+00:00,0.0
2024-10-29 13:00:00+00:00,0.0
2024-10-29 14:00:00+00:00,-39.95759558262368
2024-10-29 15:00:00+00:00,-33.88760366506163
2024-10-29 16:00:00+00:00,-34.97950739250488
2024-10-29 17:00:00+00:00,-30.781282431371856
2024-10-29 18:00:00+00:00,-37.80267436478494
2024-10-29 19:00:00+00:00,-22.207368511834147
2024-10-30 13:00:00+00:00,6.030678845373146
2024-10-30 14:00:00+00:00,16.588239618532075
2024-10-30 15:00:00+00:00,-13.200564317804027
2024-10-30 16:00:00+00:00,-9.92302455963022
2024-10-30 17:00:00+00:00,-17.86855959388766
2024-10-30 18:00:00+00:00,13.110087964530582
2024-10-30 19:00:00+00:00,13.739345603649568
2024-10-31 13:00:00+00:00,124.34888099009953
2024-10-31 14:00:00+00:00,150.8110176161392
2024-10-31 15:00:00+00:00,188.20845495378416
2024-10-31 16:00:00+00:00,187.56015547964952
2024-10-31 17:00:00+00:00,205.59273830323042
2024-10-31 18:00:00+00:00,238.54799663318227
2024-10-31 19:00:00+00:00,241.66856632012298
2024-11-01 13:00:00+00:00,280.3988508606918
2024-11-01 14:00:00+00:00,284.16323572532883
2024-11-01 15:00:00+00:00,242.46203726568118
2024-11-01 16:00:00+00:00,268.6292081847751
2024-11-01 17:00:00+00:00,253.85884783553283
2024-11-01 18:00:00+00:00,246.37066323881714
2024-11-01 19:00:00+00:00,248.40298634999968
2024-11-04 14:00:00+00:00,307.10997652924976
2024-11-04 15:00:00+00:00,270.4202329699938
2024-11-04 16:00:00+00:00,278.51000911274997
2024-11-04 17:00:00+00:00,243.03828989483407
2024-11-04 18:00:00+00:00,242.8125120824904
2024-11-04 19:00:00+00:00,251.5651089928616
2024-11-04 20:00:00+00:00,245.2122657934143
2024-11-05 14:00:00+00:00,329.7882932207431
2024-11-05 15:00:00+00:00,340.7692040864104
2024-11-05 16:00:00+00:00,319.2807387535462
2024-11-05 17:00:00+00:00,315.73162462089175
2024-11-05 18:00:00+00:00,283.45237031419987
2024-11-05 19:00:00+00:00,297.7771114262156
2024-11-05 20:00:00+00:00,316.6720440046306
2024-11-06 14:00:00+00:00,117.9155036975464
2024-11-06 15:00:00+00:00,145.77792739780216
2024-11-06 16:00:00+00:00,178.14420413586745
2024-11-06 17:00:00+00:00,198.81958335097448
2024-11-06 18:00:00+00:00,205.01602978067993
2024-11-06 19:00:00+00:00,235.98731509531098
2024-11-06 20:00:00+00:00,253.61467373747843
2024-11-07 14:00:00+00:00,301.44069770049765
2024-11-07 15:00:00+00:00,268.29097164992663
2024-11-07 16:00:00+00:00,308.26647283748673
2024-11-07 17:00:00+00:00,301.03462955262086
2024-11-07 18:00:00+00:00,300.4958614198148
2024-11-07 19:00:00+00:00,314.1696631275087
2024-11-07 20:00:00+00:00,299.2399344626772
2024-11-08 14:00:00+00:00,33.557201668268306
2024-11-08 15:00:00+00:00,-5.600781800922576
2024-11-08 16:00:00+00:00,-29.369935309868893
2024-11-08 17:00:00+00:00,-33.125439563396405
2024-11-08 18:00:00+00:00,-23.261581265315137
2024-11-08 19:00:00+00:00,-35.32715262322021
2024-11-08 20:00:00+00:00,-15.706987171844606
2024-11-11 14:00:00+00:00,-79.98684512453806
2024-11-11 15:00:00+00:00,-80.0924486849016
2024-11-11 16:00:00+00:00,-32.221407988711476
2024-11-11 17:00:00+00:00,-48.29465155882373
2024-11-11 18:00:00+00:00,-43.06466016070094
2024-11-11 19:00:00+00:00,-38.38671431972972
2024-11-11 20:00:00+00:00,-26.71737955339406
2024-11-12 14:00:00+00:00,-218.82882313208665
2024-11-12 15:00:00+00:00,-256.4180593167155
2024-11-12 16:00:00+00:00,-242.40806603284005
2024-11-12 17:00:00+00:00,-236.56197541136294
2024-11-12 18:00:00+00:00,-193.30439856010457
2024-11-12 19:00:00+00:00,-195.40495974388492
2024-11-12 20:00:00+00:00,-184.357758390043
2024-11-13 14:00:00+00:00,-291.402981368584
2024-11-13 15:00:00+00:00,-250.03702466311427
2024-11-13 16:00:00+00:00,-236.36752084378347
2024-11-13 17:00:00+00:00,-198.72472313371455
2024-11-13 18:00:00+00:00,-193.58695754268118
2024-11-13 19:00:00+00:00,-211.793466220428
2024-11-13 20:00:00+00:00,-214.59399242844574
2024-11-14 14:00:00+00:00,-154.37241621675014
2024-11-14 15:00:00+00:00,-152.95406108188328
2024-11-14 16:00:00+00:00,-158.6933905979253
2024-11-14 17:00:00+00:00,-152.78666216479843
2024-11-14 18:00:00+00:00,-141.60588207218808
2024-11-14 19:00:00+00:00,-190.65014526621331
2024-11-14 20:00:00+00:00,-188.6367255223868
2024-11-15 14:00:00+00:00,-209.04936415690122
2024-11-15 15:00:00+00:00,-214.91315715352977
2024-11-15 16:00:00+00:00,-232.188199250006
2024-11-15 17:00:00+00:00,-236.07903862678597
2024-11-15 18:00:00+00:00,-237.7814156345735
2024-11-15 19:00:00+00:00,-232.0259335279902
2024-11-15 20:00:00+00:00,-220.04921317730106
2024-11-18 14:00:00+00:00,-170.9224286700508
2024-11-18 15:00:00+00:00,-150.68630421080312
2024-11-18 16:00:00+00:00,-145.3475832866461
2024-11-18 17:00:00+00:00,-138.55288488027307
2024-11-18 18:00:00+00:00,-125.6450142356758
2024-11-18 19:00:00+00:00,-133.45614513524862
2024-11-18 20:00:00+00:00,-145.26984001866367
2024-11-19 14:00:00+00:00,-193.03131784814687
2024-11-19 15:00:00+00:00,-176.20802145310353
2024-11-19 16:00:00+00:00,-184.95018429933916
2024-11-19 17:00:00+00:00,-204.36799918140588
2024-11-19 18:00:00+00:00,-210.28109209589994
2024-11-19 19:00:00+00:00,-209.17581866904425
2024-11-19 20:00:00+00:00,-189.72580291156822
2024-11-20 14:00:00+00:00,-248.11242113912746
2024-11-20 15:00:00+00:00,-270.1118463753895
2024-11-20 16:00:00+00:00,-253.29933135865713
2024-11-20 17:00:00+00:00,-250.73914050156017
2024-11-20 18:00:00+00:00,-251.36469304857812
2024-11-20 19:00:00+00:00,-251.696396659651
2024-11-20 20:00:00+00:00,-252.3241348082536
2024-11-21 14:00:00+00:00,-153.40969977690543
2024-11-21 15:00:00+00:00,-178.44212658827604
2024-11-21 16:00:00+00:00,-169.39485627026798
2024-11-21 17:00:00+00:00,-164.86397787605785
2024-11-21 18:00:00+00:00,-150.8458626031373
2024-11-21 19:00:00+00:00,-140.58306038380493
2024-11-21 20:00:00+00:00,-134.25924440732925
2024-11-22 14:00:00+00:00,-176.68232767357796
2024-11-22 15:00:00+00:00,-201.91090778477582
2024-11-22 16:00:00+00:00,-202.69972381622915
2024-11-22 17:00:00+00:00,-191.1683846856057
2024-11-22 18:00:00+00:00,-203.50226409102632
2024-11-22 19:00:00+00:00,-196.14659188430494
2024-11-22 20:00:00+00:00,-178.25383327227877
2024-11-25 14:00:00+00:00,-221.94795754971526
2024-11-25 15:00:00+00:00,-248.49015658505314
2024-11-25 16:00:00+00:00,-242.4878452290072
2024-11-25 17:00:00+00:00,-208.94435189938736
2024-11-25 18:00:00+00:00,-202.78949248721716
2024-11-25 19:00:00+00:00,-213.04584188142113
2024-11-25 20:00:00+00:00,-232.2481600441896
2024-11-26 14:00:00+00:00,-263.9957704447009
2024-11-26 15:00:00+00:00,-271.7538909167998
2024-11-26 16:00:00+00:00,-293.23793935272045
2024-11-26 17:00:00+00:00,-285.073750732745
2024-11-26 18:00:00+00:00,-286.89542323867374
2024-11-26 19:00:00+00:00,-290.2355963333365
2024-11-26 20:00:00+00:00,-274.28555008001865
2024-11-27 14:00:00+00:00,-285.45033736473965
2024-11-27 15:00:00+00:00,-272.9347298726638
2024-11-27 16:00:00+00:00,-276.517945647929
2024-11-27 17:00:00+00:00,-272.65234150775353
2024-11-27 18:00:00+00:00,-266.6845666281493
2024-11-27 19:00:00+00:00,-265.90358662816396
2024-11-27 20:00:00+00:00,-267.6133258797382
2024-11-29 14:00:00+00:00,-273.8472930865784
2024-11-29 15:00:00+00:00,-259.9904937136699
2024-11-29 16:00:00+00:00,-290.6534436219436
2024-12-02 14:00:00+00:00,-355.0099333174968
2024-12-02 15:00:00+00:00,-342.0615171553997
2024-12-02 16:00:00+00:00,-345.74949706214625
2024-12-02 17:00:00+00:00,-347.86180868749034
2024-12-02 18:00:00+00:00,-326.8386875955761
2024-12-02 19:00:00+00:00,-329.3399139721751
2024-12-02 20:00:00+00:00,-310.4977831739419
2024-12-03 14:00:00+00:00,-213.93313724661255
2024-12-03 15:00:00+00:00,-202.20463621872796
2024-12-03 16:00:00+00:00,-183.67373935647305
2024-12-03 17:00:00+00:00,-187.20495991403672
2024-12-03 18:00:00+00:00,-198.42349880094332
2024-12-03 19:00:00+00:00,-176.54221601103367
2024-12-03 20:00:00+00:00,-200.33899572650503
2024-12-04 14:00:00+00:00,-187.47015665411067
2024-12-04 15:00:00+00:00,-216.90137862338577
2024-12-04 16:00:00+00:00,-255.17072664289222
2024-12-04 17:00:00+00:00,-274.92542065504006
2024-12-04 18:00:00+00:00,-285.8221354275967
2024-12-04 19:00:00+00:00,-290.3591216063607
2024-12-04 20:00:00+00:00,-298.2957225178018
2024-12-05 14:00:00+00:00,-335.4465116322449
2024-12-05 15:00:00+00:00,-320.29657906358926
2024-12-05 16:00:00+00:00,-305.5490574911247
2024-12-05 17:00:00+00:00,-282.93141479271185
2024-12-05 18:00:00+00:00,-278.53661160871013
2024-12-05 19:00:00+00:00,-262.68695748617745
2024-12-05 20:00:00+00:00,-287.42061844228283
2024-12-06 14:00:00+00:00,-352.34488287552216
2024-12-06 15:00:00+00:00,-341.6365804275441
2024-12-06 16:00:00+00:00,-389.2549327962077
2024-12-06 17:00:00+00:00,-394.54689006062716
2024-12-06 18:00:00+00:00,-407.4282962298671
2024-12-06 19:00:00+00:00,-401.56171825887225
2024-12-06 20:00:00+00:00,-390.8252037386478
2024-12-09 14:00:00+00:00,-129.25758328929777
2024-12-09 15:00:00+00:00,-148.79084531788084
2024-12-09 16:00:00+00:00,-166.46483133560815
2024-12-09 17:00:00+00:00,-196.50835516106983
2024-12-09 18:00:00+00:00,-186.0873403964388
2024-12-09 19:00:00+00:00,-205.9982993694619
2024-12-09 20:00:00+00:00,-211.08759585605293
2024-12-10 14:00:00+00:00,-252.97708763169766
2024-12-10 15:00:00+00:00,-232.11612243027454
2024-12-10 16:00:00+00:00,-234.11887980437072
2024-12-10 17:00:00+00:00,-231.46895918621888
2024-12-10 18:00:00+00:00,-236.13329731061702
2024-12-10 19:00:00+00:00,-224.20472382600434
2024-12-10 20:00:00+00:00,-229.24922151287822
2024-12-11 14:00:00+00:00,-293.45689940703176
2024-12-11 15:00:00+00:00,-274.52062195079986
2024-12-11 16:00:00+00:00,-265.19234954484085
2024-12-11 17:00:00+00:00,-247.6134600071162
2024-12-11 18:00:00+00:00,-246.08676636117227
2024-12-11 19:00:00+00:00,-238.70621713044832
2024-12-11 20:00:00+00:00,-228.35185657421812
2024-12-12 14:00:00+00:00,-264.80159868079966
2024-12-12 15:00:00+00:00,-271.1153930242229
2024-12-12 16:00:00+00:00,-247.47817170108544
2024-12-12 17:00:00+00:00,-262.96922901776475
2024-12-12 18:00:00+00:00,-270.65457551174137
2024-12-12 19:00:00+00:00,-261.00407514859535
2024-12-12 20:00:00+00:00,-278.5793786027996
2024-12-13 14:00:00+00:00,-333.1024544911968
2024-12-13 15:00:00+00:00,-305.9175885022687
2024-12-13 16:00:00+00:00,-332.27285271413285
2024-12-13 17:00:00+00:00,-329.9446851421661
2024-12-13 18:00:00+00:00,-338.81396861148596
2024-12-13 19:00:00+00:00,-339.3975731115228
2024-12-13 20:00:00+00:00,-338.9668066200316
2024-12-16 14:00:00+00:00,-395.7445163570151
2024-12-16 15:00:00+00:00,-400.78041714384153
2024-12-16 16:00:00+00:00,-429.1021856831582
2024-12-16 17:00:00+00:00,-449.37455998249186
2024-12-16 18:00:00+00:00,-464.313835369374
2024-12-16 19:00:00+00:00,-467.5721158577703
2024-12-16 20:00:00+00:00,-479.25493933209884
2024-12-17 14:00:00+00:00,-471.06416398593564
2024-12-17 15:00:00+00:00,-487.8810958996118
2024-12-17 16:00:00+00:00,-484.5046290199255
2024-12-17 17:00:00+00:00,-476.0616304544121
2024-12-17 18:00:00+00:00,-467.5372157065418
2024-12-17 19:00:00+00:00,-481.0603315791488
2024-12-17 20:00:00+00:00,-492.11795840888044
2024-12-18 14:00:00+00:00,-474.96729223751623
2024-12-18 15:00:00+00:00,-475.35653560506773
2024-12-18 16:00:00+00:00,-449.9893659385749
2024-12-18 17:00:00+00:00,-468.90436434924766
2024-12-18 18:00:00+00:00,-506.22153921854834
2024-12-18 19:00:00+00:00,-553.1986179135226
2024-12-18 20:00:00+00:00,-589.0928019300408
2024-12-19 14:00:00+00:00,-544.279036763917
2024-12-19 15:00:00+00:00,-556.5463059246083
2024-12-19 16:00:00+00:00,-562.9077254060104
2024-12-19 17:00:00+00:00,-560.5736682636782
2024-12-19 18:00:00+00:00,-527.4221136372648
2024-12-19 19:00:00+00:00,-547.6564095206697
2024-12-19 20:00:00+00:00,-546.8706567213194
2024-12-20 14:00:00+00:00,-586.1895321639777
2024-12-20 15:00:00+00:00,-565.1210985979843
2024-12-20 16:00:00+00:00,-555.0129629630393
2024-12-20 17:00:00+00:00,-564.4971366096474
2024-12-20 18:00:00+00:00,-541.5950278922498
2024-12-20 19:00:00+00:00,-564.0157061625476
2024-12-20 20:00:00+00:00,-582.847530493472
2024-12-23 14:00:00+00:00,-574.2050936670806
2024-12-23 15:00:00+00:00,-562.1560742492707
2024-12-23 16:00:00+00:00,-549.8621835750164
2024-12-23 17:00:00+00:00,-537.8266581557554
2024-12-23 18:00:00+00:00,-547.2239230890151
2024-12-23 19:00:00+00:00,-546.6564632440017
2024-12-23 20:00:00+00:00,-526.6983186503493
2024-12-24 14:00:00+00:00,-498.5441114838318
2024-12-24 15:00:00+00:00,-502.51007514267354
2024-12-24 16:00:00+00:00,-492.80494442350323
2024-12-26 14:00:00+00:00,-487.4262322863704
2024-12-26 15:00:00+00:00,-469.92060891336604
2024-12-26 16:00:00+00:00,-486.11234418244555
2024-12-26 17:00:00+00:00,-493.72781410472714
2024-12-26 18:00:00+00:00,-504.85885564925843
2024-12-26 19:00:00+00:00,-511.86031414809156
2024-12-26 20:00:00+00:00,-512.2475979371939
2024-12-27 14:00:00+00:00,-455.9315844665302
2024-12-27 15:00:00+00:00,-442.31818367664494
2024-12-27 16:00:00+00:00,-481.5119930593774
2024-12-27 17:00:00+00:00,-471.16833944333143
2024-12-27 18:00:00+00:00,-469.6815478337651
2024-12-27 19:00:00+00:00,-475.67732567620953
2024-12-27 20:00:00+00:00,-470.3871969876335
2024-12-30 14:00:00+00:00,-463.8325923822869
2024-12-30 15:00:00+00:00,-473.57600474717094
2024-12-30 16:00:00+00:00,-452.04221776317166
2024-12-30 17:00:00+00:00,-455.3713246452677
2024-12-30 18:00:00+00:00,-455.2933740249434
2024-12-30 19:00:00+00:00,-444.71927905838317
2024-12-30 20:00:00+00:00,-461.52062084799445
2024-12-31 14:00:00+00:00,-399.9562984775742
2024-12-31 15:00:00+00:00,-401.19662331661846
2024-12-31 16:00:00+00:00,-416.4361600612288
2024-12-31 17:00:00+00:00,-405.4854890974501
2024-12-31 18:00:00+00:00,-397.32786954787855
2024-12-31 19:00:00+00:00,-379.5821783826132
2024-12-31 20:00:00+00:00,-381.9192987570482
2025-01-02 14:00:00+00:00,-359.14809749347
2025-01-02 15:00:00+00:00,-373.525284483246
2025-01-02 16:00:00+00:00,-367.9935857874879
2025-01-02 17:00:00+00:00,-382.1386304835531
2025-01-02 18:00:00+00:00,-376.85120912465874
2025-01-02 19:00:00+00:00,-368.3849305711117
2025-01-02 20:00:00+00:00,-361.143611632361
2025-01-03 14:00:00+00:00,-221.30010039510015
2025-01-03 15:00:00+00:00,-217.71246772289118
2025-01-03 16:00:00+00:00,-191.09701817730434
2025-01-03 17:00:00+00:00,-203.41546377211904
2025-01-03 18:00:00+00:00,-199.7172729980331
2025-01-03 19:00:00+00:00,-194.86140304194137
2025-01-03 20:00:00+00:00,-212.28522215244075
2025-01-06 14:00:00+00:00,-152.59083816260568
2025-01-06 15:00:00+00:00,-156.4654815017113
2025-01-06 16:00:00+00:00,-148.81579092823833
2025-01-06 17:00:00+00:00,-185.1592045522662
2025-01-06 18:00:00+00:00,-193.12708742684873
2025-01-06 19:00:00+00:00,-189.56232155089623
2025-01-06 20:00:00+00:00,-181.46713074877667
2025-01-07 14:00:00+00:00,-43.82965441206579
2025-01-07 15:00:00+00:00,-70.7123564914084
2025-01-07 16:00:00+00:00,-36.34244362540798
2025-01-07 17:00:00+00:00,-40.39360113978038
2025-01-07 18:00:00+00:00,-30.58278263904218
2025-01-07 19:00:00+00:00,-54.83401538562809
2025-01-07 20:00:00+00:00,-52.968493901985816
2025-01-08 14:00:00+00:00,-258.2491917067577
2025-01-08 15:00:00+00:00,-275.52347405797565
2025-01-08 16:00:00+00:00,-252.95476512981742
2025-01-08 17:00:00+00:00,-254.66521618623423
2025-01-08 18:00:00+00:00,-246.43838560570504
2025-01-08 19:00:00+00:00,-239.11045670248197
2025-01-08 20:00:00+00:00,-217.64431387149776
2025-01-10 14:00:00+00:00,-196.072770709935
2025-01-10 15:00:00+00:00,-253.82161600279946
2025-01-10 16:00:00+00:00,-225.28967176923132
2025-01-10 17:00:00+00:00,-212.2997580566811
2025-01-10 18:00:00+00:00,-221.27166607546587
2025-01-10 19:00:00+00:00,-237.34640933324883
2025-01-10 20:00:00+00:00,-235.65115655208677
2025-01-13 14:00:00+00:00,-227.0307705463584
2025-01-13 15:00:00+00:00,-251.04016160454648
2025-01-13 16:00:00+00:00,-284.32365647063125
2025-01-13 17:00:00+00:00,-291.442462883182
2025-01-13 18:00:00+00:00,-283.7327272943211
2025-01-13 19:00:00+00:00,-287.58405036912694
2025-01-13 20:00:00+00:00,-278.5593405701604
2025-01-14 14:00:00+00:00,-243.60138390443154
2025-01-14 15:00:00+00:00,-216.93835603808697
2025-01-14 16:00:00+00:00,-205.43399432344881
2025-01-14 17:00:00+00:00,-199.54322391083497
2025-01-14 18:00:00+00:00,-175.34284536000743
2025-01-14 19:00:00+00:00,-178.68496603909355
2025-01-14 20:00:00+00:00,-185.3905800771422
2025-01-15 14:00:00+00:00,-142.90044657746077
2025-01-15 15:00:00+00:00,-151.64162224238845
2025-01-15 16:00:00+00:00,-169.97110889942044
2025-01-15 17:00:00+00:00,-162.05191054447087
2025-01-15 18:00:00+00:00,-150.09114821429478
2025-01-15 19:00:00+00:00,-139.98059008392556
2025-01-15 20:00:00+00:00,-147.15509568308522
2025-01-16 14:00:00+00:00,-154.9321195225401
2025-01-16 15:00:00+00:00,-165.3815751547168
2025-01-16 16:00:00+00:00,-130.90113092035384
2025-01-16 17:00:00+00:00,-132.30419639241714
2025-01-16 18:00:00+00:00,-116.83985422361934
2025-01-16 19:00:00+00:00,-122.03671449149873
2025-01-16 20:00:00+00:00,-149.993428625815
2025-01-17 14:00:00+00:00,-56.43212348028919
2025-01-17 15:00:00+00:00,-95.47798666242144
2025-01-17 16:00:00+00:00,-93.63368082044907
2025-01-17 17:00:00+00:00,-101.38129596102412
2025-01-17 18:00:00+00:00,-109.38587824824964
2025-01-17 19:00:00+00:00,-104.25718446826514
2025-01-17 20:00:00+00:00,-96.40674591401037
2025-01-21 14:00:00+00:00,-81.95805438974837
2025-01-21 15:00:00+00:00,-65.4113337725993
2025-01-21 16:00:00+00:00,-46.424651657347354
2025-01-21 17:00:00+00:00,-56.931256302540476
2025-01-21 18:00:00+00:00,-56.52313354682724
2025-01-21 19:00:00+00:00,-65.48792435078616
2025-01-21 20:00:00+00:00,-83.31644007067499
2025-01-22 14:00:00+00:00,-101.97003953574962
2025-01-22 15:00:00+00:00,-90.54374745001643
2025-01-22 16:00:00+00:00,-96.0137851974416
2025-01-22 17:00:00+00:00,-106.17291941098816
2025-01-22 18:00:00+00:00,-104.58692734187514
2025-01-22 19:00:00+00:00,-116.42638239654937
2025-01-22 20:00:00+00:00,-149.2223497568894
2025-01-23 14:00:00+00:00,-62.12453100343731
2025-01-23 15:00:00+00:00,-69.37790076413653
2025-01-23 16:00:00+00:00,-59.6699437067039
2025-01-23 17:00:00+00:00,-56.48125495574602
2025-01-23 18:00:00+00:00,-39.51554602804667
2025-01-23 19:00:00+00:00,-68.13168635472566
2025-01-23 20:00:00+00:00,-62.54046549499733
2025-01-24 14:00:00+00:00,-151.80931480018666
2025-01-24 15:00:00+00:00,-159.8956718084184
2025-01-24 16:00:00+00:00,-173.58749812962944
2025-01-24 17:00:00+00:00,-185.3948285316773
2025-01-24 18:00:00+00:00,-160.1986404958281
2025-01-24 19:00:00+00:00,-186.53666746046508
2025-01-24 20:00:00+00:00,-186.17846792092857
2025-01-27 14:00:00+00:00,-245.3897613302298
2025-01-27 15:00:00+00:00,-262.1446164228903
2025-01-27 16:00:00+00:00,-262.58923789769767
2025-01-27 17:00:00+00:00,-229.43509495018307
2025-01-27 18:00:00+00:00,-207.20103048665797
2025-01-27 19:00:00+00:00,-209.2303648038645
2025-01-27 20:00:00+00:00,-221.0440596872795
2025-01-28 14:00:00+00:00,-254.60159824036526
2025-01-28 15:00:00+00:00,-257.38616642786997
2025-01-28 16:00:00+00:00,-277.5297827282162
2025-01-28 17:00:00+00:00,-277.2994690103481
2025-01-28 18:00:00+00:00,-297.11247173710757
2025-01-28 19:00:00+00:00,-272.96942281812414
2025-01-28 20:00:00+00:00,-259.88448369373634
2025-01-29 14:00:00+00:00,-235.3737013590183
2025-01-29 15:00:00+00:00,-253.20048035272538
2025-01-29 16:00:00+00:00,-261.90697524861173
2025-01-29 17:00:00+00:00,-245.55703525203896
2025-01-29 18:00:00+00:00,-267.60020721623846
2025-01-29 19:00:00+00:00,-260.5839269898768
2025-01-29 20:00:00+00:00,-237.00739141880507
2025-01-30 14:00:00+00:00,1.0610033431201202
2025-01-30 15:00:00+00:00,1.0610033431201202
2025-01-30 16:00:00+00:00,1.0610033431201202
2025-01-30 17:00:00+00:00,1.0610033431201202
2025-01-30 18:00:00+00:00,1.0610033431201202
2025-01-30 19:00:00+00:00,1.0610033431201202
2025-01-30 20:00:00+00:00,1.0610033431201202
2025-01-31 14:00:00+00:00,1.0610033431201202
2025-01-31 15:00:00+00:00,1.0610033431201202
2025-01-31 16:00:00+00:00,1.0610033431201202
2025-01-31 17:00:00+00:00,1.0610033431201202
2025-01-31 18:00:00+00:00,1.0610033431201202
2025-01-31 19:00:00+00:00,1.0610033431201202
2025-01-31 20:00:00+00:00,1.0610033431201202
2025-02-03 14:00:00+00:00,1.0610033431201202
2025-02-03 15:00:00+00:00,1.0610033431201202
2025-02-03 16:00:00+00:00,1.0610033431201202
2025-02-03 17:00:00+00:00,1.0610033431201202
2025-02-03 18:00:00+00:00,1.0610033431201202
2025-02-03 19:00:00+00:00,1.0610033431201202
2025-02-03 20:00:00+00:00,1.0610033431201202
2025-02-04 14:00:00+00:00,1.0610033431201202
2025-02-04 15:00:00+00:00,1.0610033431201202
2025-02-04 16:00:00+00:00,1.0610033431201202
2025-02-04 17:00:00+00:00,1.0610033431201202
2025-02-04 18:00:00+00:00,1.0610033431201202
2025-02-04 19:00:00+00:00,1.0610033431201202
2025-02-04 20:00:00+00:00,1.0610033431201202
2025-02-05 14:00:00+00:00,1.0610033431201202
2025-02-05 15:00:00+00:00,1.0610033431201202
2025-02-05 16:00:00+00:00,1.0610033431201202
2025-02-05 17:00:00+00:00,1.0610033431201202
2025-02-05 18:00:00+00:00,1.0610033431201202
2025-02-05 19:00:00+00:00,1.0610033431201202
2025-02-05 20:00:00+00:00,1.0610033431201202
2025-02-06 14:00:00+00:00,1.0610033431201202
2025-02-06 15:00:00+00:00,1.0610033431201202
2025-02-06 16:00:00+00:00,1.0610033431201202
2025-02-06 17:00:00+00:00,1.0610033431201202
2025-02-06 18:00:00+00:00,1.0610033431201202
2025-02-06 19:00:00+00:00,1.0610033431201202
2025-02-06 20:00:00+00:00,1.0610033431201202
2025-02-07 14:00:00+00:00,1.0610033431201202
2025-02-07 15:00:00+00:00,1.0610033431201202
2025-02-07 16:00:00+00:00,1.0610033431201202
2025-02-07 17:00:00+00:00,1.0610033431201202
2025-02-07 18:00:00+00:00,1.0610033431201202
2025-02-07 19:00:00+00:00,1.0610033431201202
2025-02-07 20:00:00+00:00,1.0610033431201202
2025-02-10 14:00:00+00:00,1.0610033431201202
2025-02-10 15:00:00+00:00,1.0610033431201202
2025-02-10 16:00:00+00:00,1.0610033431201202
2025-02-10 17:00:00+00:00,1.0610033431201202
2025-02-10 18:00:00+00:00,1.0610033431201202
2025-02-10 19:00:00+00:00,1.0610033431201202
2025-02-10 20:00:00+00:00,1.0610033431201202
2025-02-11 14:00:00+00:00,1.0610033431201202
2025-02-11 15:00:00+00:00,1.0610033431201202
2025-02-11 16:00:00+00:00,1.0610033431201202
2025-02-11 17:00:00+00:00,1.0610033431201202
2025-02-11 18:00:00+00:00,1.0610033431201202
2025-02-11 19:00:00+00:00,1.0610033431201202
2025-02-11 20:00:00+00:00,1.0610033431201202
2025-02-12 14:00:00+00:00,1.0610033431201202
2025-02-12 15:00:00+00:00,1.0610033431201202
2025-02-12 16:00:00+00:00,1.0610033431201202
2025-02-12 17:00:00+00:00,1.0610033431201202
2025-02-12 18:00:00+00:00,1.0610033431201202
2025-02-12 19:00:00+00:00,1.0610033431201202
2025-02-12 20:00:00+00:00,1.0610033431201202
2025-02-13 14:00:00+00:00,1.0610033431201202
2025-02-13 15:00:00+00:00,1.0610033431201202
2025-02-13 16:00:00+00:00,1.0610033431201202
2025-02-13 17:00:00+00:00,1.0610033431201202
2025-02-13 18:00:00+00:00,1.0610033431201202
2025-02-13 19:00:00+00:00,1.0610033431201202
2025-02-13 20:00:00+00:00,1.0610033431201202
2025-02-14 14:00:00+00:00,1.0610033431201202
2025-02-14 15:00:00+00:00,1.0610033431201202
2025-02-14 16:00:00+00:00,1.0610033431201202
2025-02-14 17:00:00+00:00,1.0610033431201202
2025-02-14 18:00:00+00:00,1.0610033431201202
2025-02-14 19:00:00+00:00,1.0610033431201202
2025-02-14 20:00:00+00:00,1.0610033431201202
2025-02-18 14:00:00+00:00,1.0610033431201202
2025-02-18 15:00:00+00:00,1.0610033431201202
2025-02-18 16:00:00+00:00,1.0610033431201202
2025-02-18 17:00:00+00:00,1.0610033431201202
2025-02-18 18:00:00+00:00,1.0610033431201202
2025-02-18 19:00:00+00:00,1.0610033431201202
2025-02-18 20:00:00+00:00,1.0610033431201202
2025-02-19 14:00:00+00:00,1.0610033431201202
2025-02-19 15:00:00+00:00,1.0610033431201202
2025-02-19 16:00:00+00:00,1.0610033431201202
2025-02-19 17:00:00+00:00,1.0610033431201202
2025-02-19 18:00:00+00:00,1.0610033431201202
2025-02-19 19:00:00+00:00,1.0610033431201202
2025-02-19 20:00:00+00:00,1.0610033431201202
2025-02-20 14:00:00+00:00,1.0610033431201202
2025-02-20 15:00:00+00:00,1.0610033431201202
2025-02-20 16:00:00+00:00,1.0610033431201202
2025-02-20 17:00:00+00:00,1.0610033431201202
2025-02-20 18:00:00+00:00,1.0610033431201202
2025-02-20 19:00:00+00:00,1.0610033431201202
2025-02-20 20:00:00+00:00,1.0610033431201202
2025-02-21 14:00:00+00:00,1.0610033431201202
2025-02-21 15:00:00+00:00,1.0610033431201202
2025-02-21 16:00:00+00:00,1.0610033431201202
2025-02-21 17:00:00+00:00,1.0610033431201202
2025-02-21 18:00:00+00:00,1.0610033431201202
2025-02-21 19:00:00+00:00,1.0610033431201202
2025-02-21 20:00:00+00:00,1.0610033431201202
2025-02-24 14:00:00+00:00,1.0610033431201202
2025-02-24 15:00:00+00:00,1.0610033431201202
2025-02-24 16:00:00+00:00,1.0610033431201202
2025-02-24 17:00:00+00:00,1.0610033431201202
2025-02-24 18:00:00+00:00,1.0610033431201202
2025-02-24 19:00:00+00:00,1.0610033431201202
2025-02-24 20:00:00+00:00,1.0610033431201202
2025-02-25 14:00:00+00:00,1.0610033431201202
2025-02-25 15:00:00+00:00,1.0610033431201202
2025-02-25 16:00:00+00:00,1.0610033431201202
2025-02-25 17:00:00+00:00,1.0610033431201202
2025-02-25 18:00:00+00:00,1.0610033431201202
2025-02-25 19:00:00+00:00,1.0610033431201202
2025-02-25 20:00:00+00:00,1.0610033431201202
2025-02-26 14:00:00+00:00,1.0610033431201202
2025-02-26 15:00:00+00:00,1.0610033431201202
2025-02-26 16:00:00+00:00,1.0610033431201202
2025-02-26 17:00:00+00:00,1.0610033431201202
2025-02-26 18:00:00+00:00,1.0610033431201202
2025-02-26 19:00:00+00:00,1.0610033431201202
2025-02-26 20:00:00+00:00,1.0610033431201202
2025-02-27 14:00:00+00:00,1.0610033431201202
2025-02-27 15:00:00+00:00,1.0610033431201202
2025-02-27 16:00:00+00:00,1.0610033431201202
2025-02-27 17:00:00+00:00,1.0610033431201202
2025-02-27 18:00:00+00:00,1.0610033431201202
2025-02-27 19:00:00+00:00,1.0610033431201202
2025-02-27 20:00:00+00:00,1.0610033431201202
2025-02-28 14:00:00+00:00,1.0610033431201202
2025-02-28 15:00:00+00:00,1.0610033431201202
2025-02-28 16:00:00+00:00,1.0610033431201202
2025-02-28 17:00:00+00:00,1.0610033431201202
2025-02-28 18:00:00+00:00,1.0610033431201202
2025-02-28 19:00:00+00:00,1.0610033431201202
2025-02-28 20:00:00+00:00,1.0610033431201202
2025-03-03 14:00:00+00:00,1.0610033431201202
2025-03-03 15:00:00+00:00,1.0610033431201202
2025-03-03 16:00:00+00:00,1.0610033431201202
2025-03-03 17:00:00+00:00,1.0610033431201202
2025-03-03 18:00:00+00:00,1.0610033431201202
2025-03-03 19:00:00+00:00,1.0610033431201202
2025-03-03 20:00:00+00:00,1.0610033431201202
2025-03-04 14:00:00+00:00,1.0610033431201202
2025-03-04 15:00:00+00:00,1.0610033431201202
2025-03-04 16:00:00+00:00,1.0610033431201202
2025-03-04 17:00:00+00:00,1.0610033431201202
2025-03-04 18:00:00+00:00,1.0610033431201202
2025-03-04 19:00:00+00:00,1.0610033431201202
2025-03-04 20:00:00+00:00,1.0610033431201202
2025-03-05 14:00:00+00:00,1.0610033431201202
2025-03-05 15:00:00+00:00,1.0610033431201202
2025-03-05 16:00:00+00:00,1.0610033431201202
2025-03-05 17:00:00+00:00,1.0610033431201202
2025-03-05 18:00:00+00:00,1.0610033431201202
2025-03-05 19:00:00+00:00,1.0610033431201202
2025-03-05 20:00:00+00:00,1.0610033431201202
2025-03-06 14:00:00+00:00,1.0610033431201202
2025-03-06 15:00:00+00:00,1.0610033431201202
2025-03-06 16:00:00+00:00,1.0610033431201202
2025-03-06 17:00:00+00:00,1.0610033431201202
2025-03-06 18:00:00+00:00,1.0610033431201202
2025-03-06 19:00:00+00:00,1.0610033431201202
2025-03-06 20:00:00+00:00,1.0610033431201202
2025-03-07 14:00:00+00:00,1.0610033431201202
2025-03-07 15:00:00+00:00,1.0610033431201202
2025-03-07 16:00:00+00:00,1.0610033431201202
2025-03-07 17:00:00+00:00,1.0610033431201202
2025-03-07 18:00:00+00:00,1.0610033431201202
2025-03-07 19:00:00+00:00,1.0610033431201202
2025-03-07 20:00:00+00:00,1.0610033431201202
2025-03-10 13:00:00+00:00,1.0610033431201202
2025-03-10 14:00:00+00:00,1.0610033431201202
2025-03-10 15:00:00+00:00,1.0610033431201202
2025-03-10 16:00:00+00:00,1.0610033431201202
2025-03-10 17:00:00+00:00,1.0610033431201202
2025-03-10 18:00:00+00:00,1.0610033431201202
2025-03-10 19:00:00+00:00,1.0610033431201202
2025-03-11 13:00:00+00:00,1.0610033431201202
2025-03-11 14:00:00+00:00,1.0610033431201202
2025-03-11 15:00:00+00:00,1.0610033431201202
2025-03-11 16:00:00+00:00,1.0610033431201202
2025-03-11 17:00:00+00:00,1.0610033431201202
2025-03-11 18:00:00+00:00,1.0610033431201202
2025-03-11 19:00:00+00:00,1.0610033431201202
2025-03-12 13:00:00+00:00,1.0610033431201202
2025-03-12 14:00:00+00:00,1.0610033431201202
2025-03-12 15:00:00+00:00,1.0610033431201202
2025-03-12 16:00:00+00:00,1.0610033431201202
2025-03-12 17:00:00+00:00,1.0610033431201202
2025-03-12 18:00:00+00:00,1.0610033431201202
2025-03-12 19:00:00+00:00,1.0610033431201202
2025-03-13 13:00:00+00:00,1.0610033431201202
2025-03-13 14:00:00+00:00,1.0610033431201202
2025-03-13 15:00:00+00:00,1.0610033431201202
2025-03-13 16:00:00+00:00,1.0610033431201202
2025-03-13 17:00:00+00:00,1.0610033431201202
2025-03-13 18:00:00+00:00,1.0610033431201202
2025-03-13 19:00:00+00:00,1.0610033431201202
2025-03-14 13:00:00+00:00,1.0610033431201202
2025-03-14 14:00:00+00:00,1.0610033431201202
2025-03-14 15:00:00+00:00,1.0610033431201202
2025-03-14 16:00:00+00:00,1.0610033431201202
2025-03-14 17:00:00+00:00,1.0610033431201202
2025-03-14 18:00:00+00:00,1.0610033431201202
2025-03-14 19:00:00+00:00,1.0610033431201202
2025-03-17 13:00:00+00:00,1.0610033431201202
2025-03-17 14:00:00+00:00,1.0610033431201202
2025-03-17 15:00:00+00:00,1.0610033431201202
2025-03-17 16:00:00+00:00,1.0610033431201202
2025-03-17 17:00:00+00:00,1.0610033431201202
2025-03-17 18:00:00+00:00,1.0610033431201202
2025-03-17 19:00:00+00:00,1.0610033431201202
2025-03-18 13:00:00+00:00,1.0610033431201202
2025-03-18 14:00:00+00:00,1.0610033431201202
2025-03-18 15:00:00+00:00,1.0610033431201202
2025-03-18 16:00:00+00:00,1.0610033431201202
2025-03-18 17:00:00+00:00,1.0610033431201202
2025-03-18 18:00:00+00:00,1.0610033431201202
2025-03-18 19:00:00+00:00,1.0610033431201202
2025-03-19 13:00:00+00:00,1.0610033431201202
2025-03-19 14:00:00+00:00,1.0610033431201202
2025-03-19 15:00:00+00:00,1.0610033431201202
2025-03-19 16:00:00+00:00,1.0610033431201202
2025-03-19 17:00:00+00:00,1.0610033431201202
2025-03-19 18:00:00+00:00,1.0610033431201202
2025-03-19 19:00:00+00:00,1.0610033431201202
2025-03-20 13:00:00+00:00,1.0610033431201202
2025-03-20 14:00:00+00:00,1.0610033431201202
2025-03-20 15:00:00+00:00,1.0610033431201202
2025-03-20 16:00:00+00:00,1.0610033431201202
2025-03-20 17:00:00+00:00,1.0610033431201202
2025-03-20 18:00:00+00:00,1.0610033431201202
2025-03-20 19:00:00+00:00,1.0610033431201202
2025-03-21 13:00:00+00:00,1.0610033431201202
2025-03-21 14:00:00+00:00,1.0610033431201202
2025-03-21 15:00:00+00:00,1.0610033431201202
2025-03-21 16:00:00+00:00,1.0610033431201202
2025-03-21 17:00:00+00:00,1.0610033431201202
2025-03-21 18:00:00+00:00,1.0610033431201202
2025-03-21 19:00:00+00:00,1.0610033431201202
2025-03-24 13:00:00+00:00,1.0610033431201202
2025-03-24 14:00:00+00:00,1.0610033431201202
2025-03-24 15:00:00+00:00,1.0610033431201202
2025-03-24 16:00:00+00:00,1.0610033431201202
2025-03-24 17:00:00+00:00,1.0610033431201202
2025-03-24 18:00:00+00:00,1.0610033431201202
2025-03-24 19:00:00+00:00,1.0610033431201202
2025-03-25 13:00:00+00:00,-173.66155170618072
2025-03-25 14:00:00+00:00,-113.2415363495708
2025-03-25 15:00:00+00:00,-101.47207713090309
2025-03-25 16:00:00+00:00,-103.26069327829451
2025-03-25 17:00:00+00:00,-72.29355396597727
2025-03-25 18:00:00+00:00,-93.89631664445164
2025-03-25 19:00:00+00:00,-95.88672475056022
2025-03-26 13:00:00+00:00,-203.84612962634344
2025-03-26 14:00:00+00:00,-219.15295592649065
2025-03-26 15:00:00+00:00,-214.56991930651353
2025-03-26 16:00:00+00:00,-168.30985669557361
2025-03-26 17:00:00+00:00,-172.96506821262872
2025-03-26 18:00:00+00:00,-180.39186661830186
2025-03-26 19:00:00+00:00,-178.0837713339863
2025-03-27 13:00:00+00:00,-213.55083080466423
2025-03-27 14:00:00+00:00,-248.28799689235274
2025-03-27 15:00:00+00:00,-273.8022276305027
2025-03-27 16:00:00+00:00,-287.8565485573956
2025-03-27 17:00:00+00:00,-257.14149040137437
2025-03-27 18:00:00+00:00,-255.2800696992435
2025-03-27 19:00:00+00:00,-246.66953824341073
2025-03-28 13:00:00+00:00,-203.87496784959885
2025-03-28 14:00:00+00:00,-211.2922901554648
2025-03-28 15:00:00+00:00,-202.4359851638907
2025-03-28 16:00:00+00:00,-172.66449442907196
2025-03-28 17:00:00+00:00,-191.30987766933987
2025-03-28 18:00:00+00:00,-203.64768826394285
2025-03-28 19:00:00+00:00,-186.26688229052303
2025-03-31 13:00:00+00:00,-177.013768013736
2025-03-31 14:00:00+00:00,-209.0998949627136
2025-03-31 15:00:00+00:00,-184.66282711905842
2025-03-31 16:00:00+00:00,-175.6743436127593
2025-03-31 17:00:00+00:00,-185.45354576130103
2025-03-31 18:00:00+00:00,-190.68832574484773
2025-03-31 19:00:00+00:00,-220.70528546251765
2025-04-01 13:00:00+00:00,-139.04317319299201
2025-04-01 14:00:00+00:00,-176.13947780432892
2025-04-01 15:00:00+00:00,-167.57169398509697
2025-04-01 16:00:00+00:00,-150.11797137953863
2025-04-01 17:00:00+00:00,-141.09633392458554
2025-04-01 18:00:00+00:00,-162.38739567461974
2025-04-01 19:00:00+00:00,-181.0702585206514
2025-04-02 13:00:00+00:00,-81.12416804699689
2025-04-02 14:00:00+00:00,-105.89164803778841
2025-04-02 15:00:00+00:00,-120.57337292981455
2025-04-02 16:00:00+00:00,-118.39998818586223
2025-04-02 17:00:00+00:00,-97.54481452629615
2025-04-02 18:00:00+00:00,-124.4230276019733
2025-04-02 19:00:00+00:00,-131.42397587788207
2025-04-03 13:00:00+00:00,-32.26266425446022
2025-04-03 14:00:00+00:00,3.7063615800918583
2025-04-03 15:00:00+00:00,-28.08742746497387
2025-04-03 16:00:00+00:00,4.425906456158941
2025-04-03 17:00:00+00:00,9.988071408037337
2025-04-03 18:00:00+00:00,30.00580884313795
2025-04-03 19:00:00+00:00,45.14558147130462
2025-04-04 13:00:00+00:00,448.8359955124544
2025-04-04 14:00:00+00:00,448.8359955124544
2025-04-04 15:00:00+00:00,448.8359955124544
2025-04-04 16:00:00+00:00,448.8359955124544
2025-04-04 17:00:00+00:00,448.8359955124544
2025-04-04 18:00:00+00:00,448.8359955124544
2025-04-04 19:00:00+00:00,448.8359955124544
2025-04-07 13:00:00+00:00,448.8359955124544
2025-04-07 14:00:00+00:00,448.8359955124544
2025-04-07 15:00:00+00:00,448.8359955124544
2025-04-07 16:00:00+00:00,448.8359955124544
2025-04-07 17:00:00+00:00,448.8359955124544
2025-04-07 18:00:00+00:00,448.8359955124544
2025-04-07 19:00:00+00:00,448.8359955124544
2025-04-08 13:00:00+00:00,448.8359955124544
2025-04-08 14:00:00+00:00,448.8359955124544
2025-04-08 15:00:00+00:00,448.8359955124544
2025-04-08 16:00:00+00:00,448.8359955124544
2025-04-08 17:00:00+00:00,448.8359955124544
2025-04-08 18:00:00+00:00,448.8359955124544
2025-04-08 19:00:00+00:00,448.8359955124544
2025-04-09 13:00:00+00:00,308.86244378949664
2025-04-09 14:00:00+00:00,339.2575578729579
2025-04-09 15:00:00+00:00,338.83856929027445
2025-04-09 16:00:00+00:00,584.6547427858939
2025-04-09 17:00:00+00:00,816.2576011466527
2025-04-09 18:00:00+00:00,889.8991252194518
2025-04-09 19:00:00+00:00,889.8991252194518
2025-04-10 13:00:00+00:00,889.8991252194518
2025-04-10 14:00:00+00:00,889.8991252194518
2025-04-10 15:00:00+00:00,889.8991252194518
2025-04-10 16:00:00+00:00,889.8991252194518
2025-04-10 17:00:00+00:00,889.8991252194518
2025-04-10 18:00:00+00:00,889.8991252194518
2025-04-10 19:00:00+00:00,889.8991252194518
2025-04-11 13:00:00+00:00,889.8991252194518
2025-04-11 14:00:00+00:00,889.8991252194518
2025-04-11 15:00:00+00:00,889.8991252194518
2025-04-11 16:00:00+00:00,889.8991252194518
2025-04-11 17:00:00+00:00,889.8991252194518
2025-04-11 18:00:00+00:00,889.8991252194518
2025-04-11 19:00:00+00:00,889.8991252194518
2025-04-14 13:00:00+00:00,889.8991252194518
2025-04-14 14:00:00+00:00,889.8991252194518
2025-04-14 15:00:00+00:00,889.8991252194518
2025-04-14 16:00:00+00:00,889.8991252194518
2025-04-14 17:00:00+00:00,889.8991252194518
2025-04-14 18:00:00+00:00,889.8991252194518
2025-04-14 19:00:00+00:00,889.8991252194518
2025-04-15 13:00:00+00:00,889.8991252194518
2025-04-15 14:00:00+00:00,889.8991252194518
2025-04-15 15:00:00+00:00,889.8991252194518
2025-04-15 16:00:00+00:00,889.8991252194518
2025-04-15 17:00:00+00:00,889.8991252194518
2025-04-15 18:00:00+00:00,889.8991252194518
2025-04-15 19:00:00+00:00,889.8991252194518
2025-04-16 13:00:00+00:00,889.8991252194518
2025-04-16 14:00:00+00:00,889.8991252194518
2025-04-16 15:00:00+00:00,889.8991252194518
2025-04-16 16:00:00+00:00,889.8991252194518
2025-04-16 17:00:00+00:00,889.8991252194518
2025-04-16 18:00:00+00:00,889.8991252194518
2025-04-16 19:00:00+00:00,889.8991252194518
2025-04-17 13:00:00+00:00,889.8991252194518
2025-04-17 14:00:00+00:00,889.8991252194518
2025-04-17 15:00:00+00:00,889.8991252194518
2025-04-17 16:00:00+00:00,889.8991252194518
2025-04-17 17:00:00+00:00,889.8991252194518
2025-04-17 18:00:00+00:00,889.8991252194518
2025-04-17 19:00:00+00:00,889.8991252194518
2025-04-21 13:00:00+00:00,889.8991252194518
2025-04-21 14:00:00+00:00,889.8991252194518
2025-04-21 15:00:00+00:00,889.8991252194518
2025-04-21 16:00:00+00:00,889.8991252194518
2025-04-21 17:00:00+00:00,889.8991252194518
2025-04-21 18:00:00+00:00,889.8991252194518
2025-04-21 19:00:00+00:00,889.8991252194518
2025-04-22 13:00:00+00:00,889.8991252194518
2025-04-22 14:00:00+00:00,889.8991252194518
2025-04-22 15:00:00+00:00,889.8991252194518
2025-04-22 16:00:00+00:00,889.8991252194518
2025-04-22 17:00:00+00:00,889.8991252194518
2025-04-22 18:00:00+00:00,889.8991252194518
2025-04-22 19:00:00+00:00,889.8991252194518
2025-04-23 13:00:00+00:00,889.8991252194518
2025-04-23 14:00:00+00:00,889.8991252194518
2025-04-23 15:00:00+00:00,889.8991252194518
2025-04-23 16:00:00+00:00,889.8991252194518
2025-04-23 17:00:00+00:00,889.8991252194518
2025-04-23 18:00:00+00:00,889.8991252194518
2025-04-23 19:00:00+00:00,889.8991252194518
2025-04-24 13:00:00+00:00,889.8991252194518
2025-04-24 14:00:00+00:00,889.8991252194518
2025-04-24 15:00:00+00:00,889.8991252194518
2025-04-24 16:00:00+00:00,889.8991252194518
2025-04-24 17:00:00+00:00,889.8991252194518
2025-04-24 18:00:00+00:00,889.8991252194518
2025-04-24 19:00:00+00:00,889.8991252194518
2025-04-25 13:00:00+00:00,889.8991252194518
2025-04-25 14:00:00+00:00,889.8991252194518
2025-04-25 15:00:00+00:00,889.8991252194518
2025-04-25 16:00:00+00:00,889.8991252194518
2025-04-25 17:00:00+00:00,889.8991252194518
2025-04-25 18:00:00+00:00,889.8991252194518
2025-04-25 19:00:00+00:00,889.8991252194518
2025-04-28 13:00:00+00:00,889.8991252194518
2025-04-28 14:00:00+00:00,889.8991252194518
2025-04-28 15:00:00+00:00,889.8991252194518
2025-04-28 16:00:00+00:00,889.8991252194518
2025-04-28 17:00:00+00:00,889.8991252194518
2025-04-28 18:00:00+00:00,889.8991252194518
2025-04-28 19:00:00+00:00,889.8991252194518
2025-04-29 13:00:00+00:00,889.8991252194518
2025-04-29 14:00:00+00:00,889.8991252194518
2025-04-29 15:00:00+00:00,889.8991252194518
2025-04-29 16:00:00+00:00,889.8991252194518
2025-04-29 17:00:00+00:00,889.8991252194518
2025-04-29 18:00:00+00:00,889.8991252194518
2025-04-29 19:00:00+00:00,889.8991252194518
2025-04-30 13:00:00+00:00,889.8991252194518
2025-04-30 14:00:00+00:00,889.8991252194518
2025-04-30 15:00:00+00:00,889.8991252194518
2025-04-30 16:00:00+00:00,889.8991252194518
2025-04-30 17:00:00+00:00,889.8991252194518
2025-04-30 18:00:00+00:00,889.8991252194518
2025-04-30 19:00:00+00:00,889.8991252194518
2025-05-01 13:00:00+00:00,889.8991252194518
2025-05-01 14:00:00+00:00,889.8991252194518
2025-05-01 15:00:00+00:00,889.8991252194518
2025-05-01 16:00:00+00:00,889.8991252194518
2025-05-01 17:00:00+00:00,889.8991252194518
2025-05-01 18:00:00+00:00,889.8991252194518
2025-05-01 19:00:00+00:00,889.8991252194518
2025-05-02 13:00:00+00:00,889.8991252194518
2025-05-02 14:00:00+00:00,889.8991252194518
2025-05-02 15:00:00+00:00,889.8991252194518
2025-05-02 16:00:00+00:00,889.8991252194518
2025-05-02 17:00:00+00:00,889.8991252194518
2025-05-02 18:00:00+00:00,889.8991252194518
2025-05-02 19:00:00+00:00,889.8991252194518
2025-05-05 13:00:00+00:00,889.8991252194518
2025-05-05 14:00:00+00:00,889.8991252194518
2025-05-05 15:00:00+00:00,889.8991252194518
2025-05-05 16:00:00+00:00,889.8991252194518
2025-05-05 17:00:00+00:00,889.8991252194518
2025-05-05 18:00:00+00:00,889.8991252194518
2025-05-05 19:00:00+00:00,889.8991252194518
2025-05-06 13:00:00+00:00,889.8991252194518
2025-05-06 14:00:00+00:00,889.8991252194518
2025-05-06 15:00:00+00:00,889.8991252194518
2025-05-06 16:00:00+00:00,889.8991252194518
2025-05-06 17:00:00+00:00,889.8991252194518
2025-05-06 18:00:00+00:00,889.8991252194518
2025-05-06 19:00:00+00:00,889.8991252194518
2025-05-07 13:00:00+00:00,889.8991252194518
2025-05-07 14:00:00+00:00,889.8991252194518
2025-05-07 15:00:00+00:00,889.8991252194518
2025-05-07 16:00:00+00:00,889.8991252194518
2025-05-07 17:00:00+00:00,889.8991252194518
2025-05-07 18:00:00+00:00,889.8991252194518
2025-05-07 19:00:00+00:00,889.8991252194518
2025-05-08 13:00:00+00:00,889.8991252194518
2025-05-08 14:00:00+00:00,889.8991252194518
2025-05-08 15:00:00+00:00,889.8991252194518
2025-05-08 16:00:00+00:00,889.8991252194518
2025-05-08 17:00:00+00:00,889.8991252194518
2025-05-08 18:00:00+00:00,889.8991252194518
2025-05-08 19:00:00+00:00,889.8991252194518
2025-05-09 13:00:00+00:00,889.8991252194518
2025-05-09 14:00:00+00:00,889.8991252194518
2025-05-09 15:00:00+00:00,889.8991252194518
2025-05-09 16:00:00+00:00,889.8991252194518
2025-05-09 17:00:00+00:00,889.8991252194518
2025-05-09 18:00:00+00:00,889.8991252194518
2025-05-09 19:00:00+00:00,889.8991252194518
2025-05-12 13:00:00+00:00,889.8991252194518
2025-05-12 14:00:00+00:00,889.8991252194518
2025-05-12 15:00:00+00:00,889.8991252194518
2025-05-12 16:00:00+00:00,889.8991252194518
2025-05-12 17:00:00+00:00,889.8991252194518
2025-05-12 18:00:00+00:00,889.8991252194518
2025-05-12 19:00:00+00:00,889.8991252194518
2025-05-13 13:00:00+00:00,889.8991252194518
2025-05-13 14:00:00+00:00,889.8991252194518
2025-05-13 15:00:00+00:00,889.8991252194518
2025-05-13 16:00:00+00:00,889.8991252194518
2025-05-13 17:00:00+00:00,889.8991252194518
2025-05-13 18:00:00+00:00,889.8991252194518
2025-05-13 19:00:00+00:00,889.8991252194518
2025-05-14 13:00:00+00:00,889.8991252194518
2025-05-14 14:00:00+00:00,889.8991252194518
2025-05-14 15:00:00+00:00,889.8991252194518
2025-05-14 16:00:00+00:00,889.8991252194518
2025-05-14 17:00:00+00:00,889.8991252194518
2025-05-14 18:00:00+00:00,889.8991252194518
2025-05-14 19:00:00+00:00,889.8991252194518
2025-05-15 13:00:00+00:00,889.8991252194518
2025-05-15 14:00:00+00:00,889.8991252194518
2025-05-15 15:00:00+00:00,889.8991252194518
2025-05-15 16:00:00+00:00,889.8991252194518
2025-05-15 17:00:00+00:00,889.8991252194518
2025-05-15 18:00:00+00:00,889.8991252194518
2025-05-15 19:00:00+00:00,889.8991252194518
2025-05-16 13:00:00+00:00,889.8991252194518
2025-05-16 14:00:00+00:00,889.8991252194518
2025-05-16 15:00:00+00:00,889.8991252194518
2025-05-16 16:00:00+00:00,889.8991252194518
2025-05-16 17:00:00+00:00,889.8991252194518
2025-05-16 18:00:00+00:00,889.8991252194518
2025-05-16 19:00:00+00:00,889.8991252194518
2025-05-19 13:00:00+00:00,889.8991252194518
2025-05-19 14:00:00+00:00,889.8991252194518
2025-05-19 15:00:00+00:00,889.8991252194518
2025-05-19 16:00:00+00:00,889.8991252194518
2025-05-19 17:00:00+00:00,889.8991252194518
2025-05-19 18:00:00+00:00,889.8991252194518
2025-05-19 19:00:00+00:00,889.8991252194518
2025-05-20 13:00:00+00:00,889.8991252194518
2025-05-20 14:00:00+00:00,889.8991252194518
2025-05-20 15:00:00+00:00,889.8991252194518
2025-05-20 16:00:00+00:00,889.8991252194518
2025-05-20 17:00:00+00:00,889.8991252194518
2025-05-20 18:00:00+00:00,889.8991252194518
2025-05-20 19:00:00+00:00,889.8991252194518
2025-05-21 13:00:00+00:00,889.8991252194518
2025-05-21 14:00:00+00:00,889.8991252194518
2025-05-21 15:00:00+00:00,889.8991252194518
2025-05-21 16:00:00+00:00,889.8991252194518
2025-05-21 17:00:00+00:00,889.8991252194518
2025-05-21 18:00:00+00:00,889.8991252194518
2025-05-21 19:00:00+00:00,889.8991252194518
2025-05-22 13:00:00+00:00,889.8991252194518
2025-05-22 14:00:00+00:00,889.8991252194518
2025-05-22 15:00:00+00:00,889.8991252194518
2025-05-22 16:00:00+00:00,889.8991252194518
2025-05-22 17:00:00+00:00,889.8991252194518
2025-05-22 18:00:00+00:00,889.8991252194518
2025-05-22 19:00:00+00:00,889.8991252194518
2025-05-23 13:00:00+00:00,889.8991252194518
2025-05-23 14:00:00+00:00,889.8991252194518
2025-05-23 15:00:00+00:00,889.8991252194518
2025-05-23 16:00:00+00:00,889.8991252194518
2025-05-23 17:00:00+00:00,889.8991252194518
2025-05-23 18:00:00+00:00,889.8991252194518
2025-05-23 19:00:00+00:00,889.8991252194518
2025-05-27 13:00:00+00:00,889.8991252194518
2025-05-27 14:00:00+00:00,889.8991252194518
2025-05-27 15:00:00+00:00,889.8991252194518
2025-05-27 16:00:00+00:00,889.8991252194518
2025-05-27 17:00:00+00:00,889.8991252194518
2025-05-27 18:00:00+00:00,889.8991252194518
2025-05-27 19:00:00+00:00,889.8991252194518
2025-05-28 13:00:00+00:00,889.8991252194518
2025-05-28 14:00:00+00:00,889.8991252194518
2025-05-28 15:00:00+00:00,889.8991252194518
2025-05-28 16:00:00+00:00,889.8991252194518
2025-05-28 17:00:00+00:00,889.8991252194518
2025-05-28 18:00:00+00:00,889.8991252194518
2025-05-28 19:00:00+00:00,889.8991252194518
2025-05-29 13:00:00+00:00,889.8991252194518
2025-05-29 14:00:00+00:00,889.8991252194518
2025-05-29 15:00:00+00:00,889.8991252194518
2025-05-29 16:00:00+00:00,889.8991252194518
2025-05-29 17:00:00+00:00,889.8991252194518
2025-05-29 18:00:00+00:00,889.8991252194518
2025-05-29 19:00:00+00:00,889.8991252194518
2025-05-30 13:00:00+00:00,889.8991252194518
2025-05-30 14:00:00+00:00,889.8991252194518
2025-05-30 15:00:00+00:00,889.8991252194518
2025-05-30 16:00:00+00:00,889.8991252194518
2025-05-30 17:00:00+00:00,889.8991252194518
2025-05-30 18:00:00+00:00,889.8991252194518
2025-05-30 19:00:00+00:00,889.8991252194518
2025-06-02 13:00:00+00:00,889.8991252194518
2025-06-02 14:00:00+00:00,889.8991252194518
2025-06-02 15:00:00+00:00,889.8991252194518
2025-06-02 16:00:00+00:00,889.8991252194518
2025-06-02 17:00:00+00:00,889.8991252194518
2025-06-02 18:00:00+00:00,889.8991252194518
2025-06-02 19:00:00+00:00,889.8991252194518
2025-06-03 13:00:00+00:00,889.8991252194518
2025-06-03 14:00:00+00:00,889.8991252194518
2025-06-03 15:00:00+00:00,889.8991252194518
2025-06-03 16:00:00+00:00,889.8991252194518
2025-06-03 17:00:00+00:00,889.8991252194518
2025-06-03 18:00:00+00:00,889.8991252194518
2025-06-03 19:00:00+00:00,889.8991252194518
2025-06-04 13:00:00+00:00,889.8991252194518
2025-06-04 14:00:00+00:00,889.8991252194518
2025-06-04 15:00:00+00:00,889.8991252194518
2025-06-04 16:00:00+00:00,889.8991252194518
2025-06-04 17:00:00+00:00,889.8991252194518
2025-06-04 18:00:00+00:00,889.8991252194518
2025-06-04 19:00:00+00:00,889.8991252194518
2025-06-05 13:00:00+00:00,889.8991252194518
2025-06-05 14:00:00+00:00,889.8991252194518
2025-06-05 15:00:00+00:00,889.8991252194518
2025-06-05 16:00:00+00:00,889.8991252194518
2025-06-05 17:00:00+00:00,889.8991252194518
2025-06-05 18:00:00+00:00,889.8991252194518
2025-06-05 19:00:00+00:00,889.8991252194518
2025-06-06 13:00:00+00:00,889.8991252194518
2025-06-06 14:00:00+00:00,889.8991252194518
2025-06-06 15:00:00+00:00,889.8991252194518
2025-06-06 16:00:00+00:00,889.8991252194518
2025-06-06 17:00:00+00:00,889.8991252194518
2025-06-06 18:00:00+00:00,889.8991252194518
2025-06-06 19:00:00+00:00,889.8991252194518
2025-06-09 13:00:00+00:00,889.8991252194518
2025-06-09 14:00:00+00:00,889.8991252194518
2025-06-09 15:00:00+00:00,889.8991252194518
2025-06-09 16:00:00+00:00,889.8991252194518
2025-06-09 17:00:00+00:00,889.8991252194518
2025-06-09 18:00:00+00:00,889.8991252194518
2025-06-09 19:00:00+00:00,889.8991252194518
2025-06-10 13:00:00+00:00,889.8991252194518
2025-06-10 14:00:00+00:00,889.8991252194518
2025-06-10 15:00:00+00:00,889.8991252194518
2025-06-10 16:00:00+00:00,889.8991252194518
2025-06-10 17:00:00+00:00,889.8991252194518
2025-06-10 18:00:00+00:00,889.8991252194518
2025-06-10 19:00:00+00:00,889.8991252194518
2025-06-11 13:00:00+00:00,889.8991252194518
2025-06-11 14:00:00+00:00,889.8991252194518
2025-06-11 15:00:00+00:00,889.8991252194518
2025-06-11 16:00:00+00:00,889.8991252194518
2025-06-11 17:00:00+00:00,889.8991252194518
2025-06-11 18:00:00+00:00,889.8991252194518
2025-06-11 19:00:00+00:00,889.8991252194518
2025-06-12 13:00:00+00:00,889.8991252194518
2025-06-12 14:00:00+00:00,889.8991252194518
2025-06-12 15:00:00+00:00,889.8991252194518
2025-06-12 16:00:00+00:00,889.8991252194518
2025-06-12 17:00:00+00:00,889.8991252194518
2025-06-12 18:00:00+00:00,889.8991252194518
2025-06-12 19:00:00+00:00,889.8991252194518
2025-06-13 13:00:00+00:00,889.8991252194518
2025-06-13 14:00:00+00:00,889.8991252194518
2025-06-13 15:00:00+00:00,889.8991252194518
2025-06-13 16:00:00+00:00,889.8991252194518
2025-06-13 17:00:00+00:00,889.8991252194518
2025-06-13 18:00:00+00:00,889.8991252194518
2025-06-13 19:00:00+00:00,889.8991252194518
2025-06-16 13:00:00+00:00,889.8991252194518
2025-06-16 14:00:00+00:00,889.8991252194518
2025-06-16 15:00:00+00:00,889.8991252194518
2025-06-16 16:00:00+00:00,889.8991252194518
2025-06-16 17:00:00+00:00,889.8991252194518
2025-06-16 18:00:00+00:00,889.8991252194518
2025-06-16 19:00:00+00:00,889.8991252194518
2025-06-17 13:00:00+00:00,889.8991252194518
2025-06-17 14:00:00+00:00,889.8991252194518
2025-06-17 15:00:00+00:00,889.8991252194518
2025-06-17 16:00:00+00:00,889.8991252194518
2025-06-17 17:00:00+00:00,889.8991252194518
2025-06-17 18:00:00+00:00,889.8991252194518
2025-06-17 19:00:00+00:00,889.8991252194518
2025-06-18 13:00:00+00:00,889.8991252194518
2025-06-18 14:00:00+00:00,889.8991252194518
2025-06-18 15:00:00+00:00,889.8991252194518
2025-06-18 16:00:00+00:00,889.8991252194518
2025-06-18 17:00:00+00:00,889.8991252194518
2025-06-18 18:00:00+00:00,889.8991252194518
2025-06-18 19:00:00+00:00,889.8991252194518
2025-06-20 13:00:00+00:00,889.8991252194518
2025-06-20 14:00:00+00:00,889.8991252194518
2025-06-20 15:00:00+00:00,889.8991252194518
2025-06-20 16:00:00+00:00,889.8991252194518
2025-06-20 17:00:00+00:00,889.8991252194518
2025-06-20 18:00:00+00:00,889.8991252194518
2025-06-20 19:00:00+00:00,889.8991252194518
2025-06-23 13:00:00+00:00,889.8991252194518
2025-06-23 14:00:00+00:00,889.8991252194518
2025-06-23 15:00:00+00:00,889.8991252194518
2025-06-23 16:00:00+00:00,889.8991252194518
2025-06-23 17:00:00+00:00,889.8991252194518
2025-06-23 18:00:00+00:00,889.8991252194518
2025-06-23 19:00:00+00:00,889.8991252194518
2025-06-24 13:00:00+00:00,889.8991252194518
2025-06-24 14:00:00+00:00,889.8991252194518
2025-06-24 15:00:00+00:00,889.8991252194518
2025-06-24 16:00:00+00:00,889.8991252194518
2025-06-24 17:00:00+00:00,889.8991252194518
2025-06-24 18:00:00+00:00,889.8991252194518
2025-06-24 19:00:00+00:00,889.8991252194518
2025-06-25 13:00:00+00:00,889.8991252194518
2025-06-25 14:00:00+00:00,889.8991252194518
2025-06-25 15:00:00+00:00,889.8991252194518
2025-06-25 16:00:00+00:00,889.8991252194518
2025-06-25 17:00:00+00:00,889.8991252194518
2025-06-25 18:00:00+00:00,889.8991252194518
2025-06-25 19:00:00+00:00,889.8991252194518
2025-06-26 13:00:00+00:00,889.8991252194518
2025-06-26 14:00:00+00:00,889.8991252194518
2025-06-26 15:00:00+00:00,889.8991252194518
2025-06-26 16:00:00+00:00,889.8991252194518
2025-06-26 17:00:00+00:00,889.8991252194518
2025-06-26 18:00:00+00:00,889.8991252194518
2025-06-26 19:00:00+00:00,889.8991252194518
2025-06-27 13:00:00+00:00,889.8991252194518
2025-06-27 14:00:00+00:00,889.8991252194518
2025-06-27 15:00:00+00:00,889.8991252194518
2025-06-27 16:00:00+00:00,889.8991252194518
2025-06-27 17:00:00+00:00,889.8991252194518
2025-06-27 18:00:00+00:00,889.8991252194518
2025-06-27 19:00:00+00:00,889.8991252194518
2025-06-30 13:00:00+00:00,889.8991252194518
2025-06-30 14:00:00+00:00,889.8991252194518
2025-06-30 15:00:00+00:00,889.8991252194518
2025-06-30 16:00:00+00:00,889.8991252194518
2025-06-30 17:00:00+00:00,889.8991252194518
2025-06-30 18:00:00+00:00,889.8991252194518
2025-06-30 19:00:00+00:00,889.8991252194518
2025-07-01 13:00:00+00:00,889.8991252194518
2025-07-01 14:00:00+00:00,889.8991252194518
2025-07-01 15:00:00+00:00,889.8991252194518
2025-07-01 16:00:00+00:00,889.8991252194518
2025-07-01 17:00:00+00:00,889.8991252194518
2025-07-01 18:00:00+00:00,889.8991252194518
2025-07-01 19:00:00+00:00,889.8991252194518
2025-07-02 13:00:00+00:00,889.8991252194518
2025-07-02 14:00:00+00:00,889.8991252194518
2025-07-02 15:00:00+00:00,889.8991252194518
2025-07-02 16:00:00+00:00,889.8991252194518
2025-07-02 17:00:00+00:00,889.8991252194518
2025-07-02 18:00:00+00:00,889.8991252194518
2025-07-02 19:00:00+00:00,889.8991252194518
2025-07-03 13:00:00+00:00,889.8991252194518
2025-07-03 14:00:00+00:00,889.8991252194518
2025-07-03 15:00:00+00:00,889.8991252194518
2025-07-07 13:00:00+00:00,889.8991252194518
2025-07-07 14:00:00+00:00,889.8991252194518
2025-07-07 15:00:00+00:00,889.8991252194518
2025-07-07 16:00:00+00:00,889.8991252194518
2025-07-07 17:00:00+00:00,889.8991252194518
2025-07-07 18:00:00+00:00,889.8991252194518
2025-07-07 19:00:00+00:00,889.8991252194518
2025-07-08 13:00:00+00:00,889.8991252194518
2025-07-08 14:00:00+00:00,889.8991252194518
2025-07-08 15:00:00+00:00,889.8991252194518
2025-07-08 16:00:00+00:00,889.8991252194518
2025-07-08 17:00:00+00:00,889.8991252194518
2025-07-08 18:00:00+00:00,889.8991252194518
2025-07-08 19:00:00+00:00,889.8991252194518
2025-07-09 13:00:00+00:00,889.8991252194518
2025-07-09 14:00:00+00:00,889.8991252194518
2025-07-09 15:00:00+00:00,889.8991252194518
2025-07-09 16:00:00+00:00,889.8991252194518
2025-07-09 17:00:00+00:00,889.8991252194518
2025-07-09 18:00:00+00:00,889.8991252194518
2025-07-09 19:00:00+00:00,889.8991252194518
2025-07-10 13:00:00+00:00,889.8991252194518
2025-07-10 14:00:00+00:00,889.8991252194518
2025-07-10 15:00:00+00:00,889.8991252194518
2025-07-10 16:00:00+00:00,889.8991252194518
2025-07-10 17:00:00+00:00,889.8991252194518
2025-07-10 18:00:00+00:00,889.8991252194518
2025-07-10 19:00:00+00:00,889.8991252194518
2025-07-11 13:00:00+00:00,889.8991252194518
2025-07-11 14:00:00+00:00,889.8991252194518
2025-07-11 15:00:00+00:00,889.8991252194518
2025-07-11 16:00:00+00:00,889.8991252194518
2025-07-11 17:00:00+00:00,889.8991252194518
2025-07-11 18:00:00+00:00,889.8991252194518
2025-07-11 19:00:00+00:00,889.8991252194518
2025-07-14 13:00:00+00:00,889.8991252194518
2025-07-14 14:00:00+00:00,889.8991252194518
2025-07-14 15:00:00+00:00,889.8991252194518
2025-07-14 16:00:00+00:00,889.8991252194518
2025-07-14 17:00:00+00:00,889.8991252194518
2025-07-14 18:00:00+00:00,889.8991252194518
2025-07-14 19:00:00+00:00,889.8991252194518
2025-07-15 13:00:00+00:00,889.8991252194518
2025-07-15 14:00:00+00:00,889.8991252194518
2025-07-15 15:00:00+00:00,889.8991252194518
2025-07-15 16:00:00+00:00,889.8991252194518
2025-07-15 17:00:00+00:00,889.8991252194518
2025-07-15 18:00:00+00:00,889.8991252194518
2025-07-15 19:00:00+00:00,889.8991252194518
2025-07-16 13:00:00+00:00,889.8991252194518
2025-07-16 14:00:00+00:00,889.8991252194518
2025-07-16 15:00:00+00:00,889.8991252194518
2025-07-16 16:00:00+00:00,889.8991252194518
2025-07-16 17:00:00+00:00,889.8991252194518
2025-07-16 18:00:00+00:00,889.8991252194518
2025-07-16 19:00:00+00:00,889.8991252194518
2025-07-17 13:00:00+00:00,889.8991252194518
2025-07-17 14:00:00+00:00,889.8991252194518
2025-07-17 15:00:00+00:00,889.8991252194518
2025-07-17 16:00:00+00:00,889.8991252194518
2025-07-17 17:00:00+00:00,889.8991252194518
2025-07-17 18:00:00+00:00,889.8991252194518
2025-07-17 19:00:00+00:00,889.8991252194518
2025-07-18 13:00:00+00:00,889.8991252194518
2025-07-18 14:00:00+00:00,889.8991252194518
2025-07-18 15:00:00+00:00,889.8991252194518
2025-07-18 16:00:00+00:00,889.8991252194518
2025-07-18 17:00:00+00:00,889.8991252194518
2025-07-18 18:00:00+00:00,889.8991252194518
2025-07-18 19:00:00+00:00,889.8991252194518
2025-07-21 13:00:00+00:00,889.8991252194518
2025-07-21 14:00:00+00:00,889.8991252194518
2025-07-21 15:00:00+00:00,889.8991252194518
2025-07-21 16:00:00+00:00,889.8991252194518
2025-07-21 17:00:00+00:00,889.8991252194518
2025-07-21 18:00:00+00:00,889.8991252194518
2025-07-21 19:00:00+00:00,889.8991252194518
2025-07-22 13:00:00+00:00,889.8991252194518
2025-07-22 14:00:00+00:00,889.8991252194518
2025-07-22 15:00:00+00:00,889.8991252194518
2025-07-22 16:00:00+00:00,889.8991252194518
2025-07-22 17:00:00+00:00,889.8991252194518
2025-07-22 18:00:00+00:00,889.8991252194518
2025-07-22 19:00:00+00:00,889.8991252194518
2025-07-23 13:00:00+00:00,889.8991252194518
2025-07-23 14:00:00+00:00,889.8991252194518
2025-07-23 15:00:00+00:00,889.8991252194518
2025-07-23 16:00:00+00:00,889.8991252194518
2025-07-23 17:00:00+00:00,889.8991252194518
2025-07-23 18:00:00+00:00,889.8991252194518
2025-07-23 19:00:00+00:00,889.8991252194518
2025-07-24 13:00:00+00:00,889.8991252194518
2025-07-24 14:00:00+00:00,889.8991252194518
2025-07-24 15:00:00+00:00,889.8991252194518
2025-07-24 16:00:00+00:00,889.8991252194518
2025-07-24 17:00:00+00:00,889.8991252194518
2025-07-24 18:00:00+00:00,889.8991252194518
2025-07-24 19:00:00+00:00,889.8991252194518
2025-07-25 13:00:00+00:00,889.8991252194518
2025-07-25 14:00:00+00:00,889.8991252194518
2025-07-25 15:00:00+00:00,889.8991252194518
2025-07-25 16:00:00+00:00,889.8991252194518
2025-07-25 17:00:00+00:00,889.8991252194518
2025-07-25 18:00:00+00:00,889.8991252194518
2025-07-25 19:00:00+00:00,889.8991252194518
2025-07-28 13:00:00+00:00,889.8991252194518
2025-07-28 14:00:00+00:00,889.8991252194518
2025-07-28 15:00:00+00:00,889.8991252194518
2025-07-28 16:00:00+00:00,889.8991252194518
2025-07-28 17:00:00+00:00,889.8991252194518
2025-07-28 18:00:00+00:00,889.8991252194518
2025-07-28 19:00:00+00:00,889.8991252194518
2025-07-29 13:00:00+00:00,889.8991252194518
2025-07-29 14:00:00+00:00,889.8991252194518
2025-07-29 15:00:00+00:00,889.8991252194518
2025-07-29 16:00:00+00:00,889.8991252194518
2025-07-29 17:00:00+00:00,889.8991252194518
2025-07-29 18:00:00+00:00,889.8991252194518
2025-07-29 19:00:00+00:00,889.8991252194518
2025-07-30 13:00:00+00:00,889.8991252194518
2025-07-30 14:00:00+00:00,889.8991252194518
2025-07-30 15:00:00+00:00,889.8991252194518
2025-07-30 16:00:00+00:00,889.8991252194518
2025-07-30 17:00:00+00:00,889.8991252194518
2025-07-30 18:00:00+00:00,889.8991252194518
2025-07-30 19:00:00+00:00,889.8991252194518
2025-07-31 13:00:00+00:00,889.8991252194518
2025-07-31 14:00:00+00:00,889.8991252194518
2025-07-31 15:00:00+00:00,889.8991252194518
2025-07-31 16:00:00+00:00,889.8991252194518
2025-07-31 17:00:00+00:00,889.8991252194518
2025-07-31 18:00:00+00:00,889.8991252194518
2025-07-31 19:00:00+00:00,889.8991252194518
2025-08-01 13:00:00+00:00,889.8991252194518
2025-08-01 14:00:00+00:00,889.8991252194518
2025-08-01 15:00:00+00:00,889.8991252194518
2025-08-01 16:00:00+00:00,889.8991252194518
2025-08-01 17:00:00+00:00,889.8991252194518
2025-08-01 18:00:00+00:00,889.8991252194518
2025-08-01 19:00:00+00:00,889.8991252194518
2025-08-04 13:00:00+00:00,889.8991252194518
2025-08-04 14:00:00+00:00,889.8991252194518
2025-08-04 15:00:00+00:00,889.8991252194518
2025-08-04 16:00:00+00:00,889.8991252194518
2025-08-04 17:00:00+00:00,889.8991252194518
2025-08-04 18:00:00+00:00,889.8991252194518
2025-08-04 19:00:00+00:00,889.8991252194518
2025-08-05 13:00:00+00:00,889.8991252194518
2025-08-05 14:00:00+00:00,889.8991252194518
2025-08-05 15:00:00+00:00,889.8991252194518
2025-08-05 16:00:00+00:00,889.8991252194518
2025-08-05 17:00:00+00:00,889.8991252194518
2025-08-05 18:00:00+00:00,889.8991252194518
2025-08-05 19:00:00+00:00,889.8991252194518
2025-08-06 13:00:00+00:00,889.8991252194518
2025-08-06 14:00:00+00:00,889.8991252194518
2025-08-06 15:00:00+00:00,889.8991252194518
2025-08-06 16:00:00+00:00,889.8991252194518
2025-08-06 17:00:00+00:00,889.8991252194518
2025-08-06 18:00:00+00:00,889.8991252194518
2025-08-06 19:00:00+00:00,889.8991252194518
2025-08-07 13:00:00+00:00,889.8991252194518
2025-08-07 14:00:00+00:00,889.8991252194518
2025-08-07 15:00:00+00:00,889.8991252194518
2025-08-07 16:00:00+00:00,889.8991252194518
2025-08-07 17:00:00+00:00,889.8991252194518
2025-08-07 18:00:00+00:00,889.8991252194518
2025-08-07 19:00:00+00:00,889.8991252194518
2025-08-08 13:00:00+00:00,889.8991252194518
2025-08-08 14:00:00+00:00,889.8991252194518
2025-08-08 15:00:00+00:00,889.8991252194518
2025-08-08 16:00:00+00:00,889.8991252194518
2025-08-08 17:00:00+00:00,889.8991252194518
2025-08-08 18:00:00+00:00,889.8991252194518
2025-08-08 19:00:00+00:00,889.8991252194518
2025-08-11 13:00:00+00:00,889.8991252194518
2025-08-11 14:00:00+00:00,889.8991252194518
2025-08-11 15:00:00+00:00,889.8991252194518
2025-08-11 16:00:00+00:00,889.8991252194518
2025-08-11 17:00:00+00:00,889.8991252194518
2025-08-11 18:00:00+00:00,889.8991252194518
2025-08-11 19:00:00+00:00,889.8991252194518
2025-08-12 13:00:00+00:00,889.8991252194518
2025-08-12 14:00:00+00:00,889.8991252194518
2025-08-12 15:00:00+00:00,889.8991252194518
2025-08-12 16:00:00+00:00,889.8991252194518
2025-08-12 17:00:00+00:00,889.8991252194518
2025-08-12 18:00:00+00:00,889.8991252194518
2025-08-12 19:00:00+00:00,889.8991252194518
2025-08-13 13:00:00+00:00,889.8991252194518
2025-08-13 14:00:00+00:00,889.8991252194518
2025-08-13 15:00:00+00:00,889.8991252194518
2025-08-13 16:00:00+00:00,889.8991252194518
2025-08-13 17:00:00+00:00,889.8991252194518
2025-08-13 18:00:00+00:00,889.8991252194518
2025-08-13 19:00:00+00:00,889.8991252194518
2025-08-14 13:00:00+00:00,889.8991252194518
2025-08-14 14:00:00+00:00,889.8991252194518
2025-08-14 15:00:00+00:00,889.8991252194518
2025-08-14 16:00:00+00:00,889.8991252194518
2025-08-14 17:00:00+00:00,889.8991252194518
2025-08-14 18:00:00+00:00,889.8991252194518
2025-08-14 19:00:00+00:00,889.8991252194518
2025-08-15 13:00:00+00:00,889.8991252194518
2025-08-15 14:00:00+00:00,889.8991252194518
2025-08-15 15:00:00+00:00,889.8991252194518
2025-08-15 16:00:00+00:00,889.8991252194518
2025-08-15 17:00:00+00:00,889.8991252194518
2025-08-15 18:00:00+00:00,889.8991252194518
2025-08-15 19:00:00+00:00,889.8991252194518
2025-08-18 13:00:00+00:00,889.8991252194518
2025-08-18 14:00:00+00:00,889.8991252194518
2025-08-18 15:00:00+00:00,889.8991252194518
2025-08-18 16:00:00+00:00,889.8991252194518
2025-08-18 17:00:00+00:00,889.8991252194518
2025-08-18 18:00:00+00:00,889.8991252194518
2025-08-18 19:00:00+00:00,889.8991252194518
2025-08-19 13:00:00+00:00,889.8991252194518
2025-08-19 14:00:00+00:00,889.8991252194518
2025-08-19 15:00:00+00:00,889.8991252194518
2025-08-19 16:00:00+00:00,889.8991252194518
2025-08-19 17:00:00+00:00,889.8991252194518
2025-08-19 18:00:00+00:00,889.8991252194518
2025-08-19 19:00:00+00:00,889.8991252194518
2025-08-20 13:00:00+00:00,889.8991252194518
2025-08-20 14:00:00+00:00,889.8991252194518
2025-08-20 15:00:00+00:00,889.8991252194518
2025-08-20 16:00:00+00:00,889.8991252194518
2025-08-20 17:00:00+00:00,889.8991252194518
2025-08-20 18:00:00+00:00,889.8991252194518
2025-08-20 19:00:00+00:00,889.8991252194518
2025-08-21 13:00:00+00:00,889.8991252194518
2025-08-21 14:00:00+00:00,889.8991252194518
2025-08-21 15:00:00+00:00,889.8991252194518
2025-08-21 16:00:00+00:00,889.8991252194518
2025-08-21 17:00:00+00:00,889.8991252194518
2025-08-21 18:00:00+00:00,889.8991252194518
2025-08-21 19:00:00+00:00,889.8991252194518
2025-08-22 13:00:00+00:00,889.8991252194518
2025-08-22 14:00:00+00:00,889.8991252194518
2025-08-22 15:00:00+00:00,889.8991252194518
2025-08-22 16:00:00+00:00,889.8991252194518
2025-08-22 17:00:00+00:00,889.8991252194518
2025-08-22 18:00:00+00:00,889.8991252194518
2025-08-22 19:00:00+00:00,889.8991252194518
2025-08-25 13:00:00+00:00,889.8991252194518
2025-08-25 14:00:00+00:00,889.8991252194518
2025-08-25 15:00:00+00:00,889.8991252194518
2025-08-25 16:00:00+00:00,889.8991252194518
2025-08-25 17:00:00+00:00,889.8991252194518
2025-08-25 18:00:00+00:00,889.8991252194518
2025-08-25 19:00:00+00:00,889.8991252194518
2025-08-26 13:00:00+00:00,889.8991252194518
2025-08-26 14:00:00+00:00,889.8991252194518
2025-08-26 15:00:00+00:00,889.8991252194518
2025-08-26 16:00:00+00:00,889.8991252194518
2025-08-26 17:00:00+00:00,889.8991252194518
2025-08-26 18:00:00+00:00,889.8991252194518
2025-08-26 19:00:00+00:00,889.8991252194518
2025-08-27 13:00:00+00:00,889.8991252194518
2025-08-27 14:00:00+00:00,889.8991252194518
2025-08-27 15:00:00+00:00,889.8991252194518
2025-08-27 16:00:00+00:00,889.8991252194518
2025-08-27 17:00:00+00:00,889.8991252194518
2025-08-27 18:00:00+00:00,889.8991252194518
2025-08-27 19:00:00+00:00,889.8991252194518
2025-08-28 13:00:00+00:00,889.8991252194518
2025-08-28 14:00:00+00:00,889.8991252194518
2025-08-28 15:00:00+00:00,889.8991252194518
2025-08-28 16:00:00+00:00,889.8991252194518
2025-08-28 17:00:00+00:00,889.8991252194518
2025-08-28 18:00:00+00:00,889.8991252194518
2025-08-28 19:00:00+00:00,889.8991252194518
2025-08-29 13:00:00+00:00,889.8991252194518
2025-08-29 14:00:00+00:00,889.8991252194518
2025-08-29 15:00:00+00:00,889.8991252194518
2025-08-29 16:00:00+00:00,889.8991252194518
2025-08-29 17:00:00+00:00,889.8991252194518
2025-08-29 18:00:00+00:00,889.8991252194518
2025-08-29 19:00:00+00:00,889.8991252194518
2025-09-02 13:00:00+00:00,889.8991252194518
2025-09-02 14:00:00+00:00,889.8991252194518
2025-09-02 15:00:00+00:00,889.8991252194518
2025-09-02 16:00:00+00:00,889.8991252194518
2025-09-02 17:00:00+00:00,889.8991252194518
2025-09-02 18:00:00+00:00,889.8991252194518
2025-09-02 19:00:00+00:00,889.8991252194518
2025-09-03 13:00:00+00:00,889.8991252194518
2025-09-03 14:00:00+00:00,889.8991252194518
2025-09-03 15:00:00+00:00,889.8991252194518
2025-09-03 16:00:00+00:00,889.8991252194518
2025-09-03 17:00:00+00:00,889.8991252194518
2025-09-03 18:00:00+00:00,889.8991252194518
2025-09-03 19:00:00+00:00,889.8991252194518
2025-09-04 13:00:00+00:00,889.8991252194518
2025-09-04 14:00:00+00:00,889.8991252194518
2025-09-04 15:00:00+00:00,889.8991252194518
2025-09-04 16:00:00+00:00,889.8991252194518
2025-09-04 17:00:00+00:00,889.8991252194518
2025-09-04 18:00:00+00:00,889.8991252194518
2025-09-04 19:00:00+00:00,889.8991252194518
2025-09-05 13:00:00+00:00,889.8991252194518
2025-09-05 14:00:00+00:00,889.8991252194518
2025-09-05 15:00:00+00:00,889.8991252194518
2025-09-05 16:00:00+00:00,889.8991252194518
2025-09-05 17:00:00+00:00,889.8991252194518
2025-09-05 18:00:00+00:00,889.8991252194518
2025-09-05 19:00:00+00:00,889.8991252194518
2025-09-08 13:00:00+00:00,889.8991252194518
2025-09-08 14:00:00+00:00,889.8991252194518
2025-09-08 15:00:00+00:00,889.8991252194518
2025-09-08 16:00:00+00:00,889.8991252194518
2025-09-08 17:00:00+00:00,889.8991252194518
2025-09-08 18:00:00+00:00,889.8991252194518
2025-09-08 19:00:00+00:00,889.8991252194518
2025-09-09 13:00:00+00:00,889.8991252194518
2025-09-09 14:00:00+00:00,889.8991252194518
2025-09-09 15:00:00+00:00,889.8991252194518
2025-09-09 16:00:00+00:00,889.8991252194518
2025-09-09 17:00:00+00:00,889.8991252194518
2025-09-09 18:00:00+00:00,889.8991252194518
2025-09-09 19:00:00+00:00,889.8991252194518
2025-09-10 13:00:00+00:00,889.8991252194518
2025-09-10 14:00:00+00:00,889.8991252194518
2025-09-10 15:00:00+00:00,889.8991252194518
2025-09-10 16:00:00+00:00,889.8991252194518
2025-09-10 17:00:00+00:00,889.8991252194518
2025-09-10 18:00:00+00:00,889.8991252194518
2025-09-10 19:00:00+00:00,889.8991252194518
2025-09-11 13:00:00+00:00,889.8991252194518
2025-09-11 14:00:00+00:00,889.8991252194518
2025-09-11 15:00:00+00:00,889.8991252194518
2025-09-11 16:00:00+00:00,889.8991252194518
2025-09-11 17:00:00+00:00,889.8991252194518
2025-09-11 18:00:00+00:00,889.8991252194518
2025-09-11 19:00:00+00:00,889.8991252194518
2025-09-12 13:00:00+00:00,889.8991252194518
2025-09-12 14:00:00+00:00,889.8991252194518
2025-09-12 15:00:00+00:00,889.8991252194518
2025-09-12 16:00:00+00:00,889.8991252194518
2025-09-12 17:00:00+00:00,889.8991252194518
2025-09-12 18:00:00+00:00,889.8991252194518
2025-09-12 19:00:00+00:00,889.8991252194518
2025-09-15 13:00:00+00:00,889.8991252194518
2025-09-15 14:00:00+00:00,889.8991252194518
2025-09-15 15:00:00+00:00,889.8991252194518
2025-09-15 16:00:00+00:00,889.8991252194518
2025-09-15 17:00:00+00:00,889.8991252194518
2025-09-15 18:00:00+00:00,889.8991252194518
2025-09-15 19:00:00+00:00,889.8991252194518
2025-09-16 13:00:00+00:00,889.8991252194518
2025-09-16 14:00:00+00:00,889.8991252194518
2025-09-16 15:00:00+00:00,889.8991252194518
2025-09-16 16:00:00+00:00,889.8991252194518
2025-09-16 17:00:00+00:00,889.8991252194518
2025-09-16 18:00:00+00:00,889.8991252194518
2025-09-16 19:00:00+00:00,889.8991252194518
2025-09-17 13:00:00+00:00,889.8991252194518
2025-09-17 14:00:00+00:00,889.8991252194518
2025-09-17 15:00:00+00:00,889.8991252194518
2025-09-17 16:00:00+00:00,889.8991252194518
2025-09-17 17:00:00+00:00,889.8991252194518
2025-09-17 18:00:00+00:00,889.8991252194518
2025-09-17 19:00:00+00:00,889.8991252194518
2025-09-18 13:00:00+00:00,889.8991252194518
2025-09-18 14:00:00+00:00,889.8991252194518
2025-09-18 15:00:00+00:00,889.8991252194518
2025-09-18 16:00:00+00:00,889.8991252194518
2025-09-18 17:00:00+00:00,889.8991252194518
2025-09-18 18:00:00+00:00,889.8991252194518
2025-09-18 19:00:00+00:00,889.8991252194518
2025-09-19 13:00:00+00:00,889.8991252194518
2025-09-19 14:00:00+00:00,889.8991252194518
2025-09-19 15:00:00+00:00,889.8991252194518
2025-09-19 16:00:00+00:00,889.8991252194518
2025-09-19 17:00:00+00:00,889.8991252194518
2025-09-19 18:00:00+00:00,889.8991252194518
2025-09-19 19:00:00+00:00,889.8991252194518
2025-09-22 13:00:00+00:00,889.8991252194518
2025-09-22 14:00:00+00:00,889.8991252194518
2025-09-22 15:00:00+00:00,889.8991252194518
2025-09-22 16:00:00+00:00,889.8991252194518
2025-09-22 17:00:00+00:00,889.8991252194518
2025-09-22 18:00:00+00:00,889.8991252194518
2025-09-22 19:00:00+00:00,889.8991252194518
2025-09-23 13:00:00+00:00,889.8991252194518
2025-09-23 14:00:00+00:00,889.8991252194518
2025-09-23 15:00:00+00:00,889.8991252194518
2025-09-23 16:00:00+00:00,889.8991252194518
2025-09-23 17:00:00+00:00,889.8991252194518
2025-09-23 18:00:00+00:00,889.8991252194518
2025-09-23 19:00:00+00:00,889.8991252194518
2025-09-24 13:00:00+00:00,889.8991252194518
2025-09-24 14:00:00+00:00,889.8991252194518
2025-09-24 15:00:00+00:00,889.8991252194518
2025-09-24 16:00:00+00:00,889.8991252194518
2025-09-24 17:00:00+00:00,889.8991252194518
2025-09-24 18:00:00+00:00,889.8991252194518
2025-09-24 19:00:00+00:00,889.8991252194518
2025-09-25 13:00:00+00:00,889.8991252194518
2025-09-25 14:00:00+00:00,889.8991252194518
2025-09-25 15:00:00+00:00,889.8991252194518
2025-09-25 16:00:00+00:00,889.8991252194518
2025-09-25 17:00:00+00:00,889.8991252194518
2025-09-25 18:00:00+00:00,889.8991252194518
2025-09-25 19:00:00+00:00,889.8991252194518
2025-09-26 13:00:00+00:00,889.8991252194518
2025-09-26 14:00:00+00:00,889.8991252194518
2025-09-26 15:00:00+00:00,889.8991252194518
2025-09-26 16:00:00+00:00,889.8991252194518
2025-09-26 17:00:00+00:00,889.8991252194518
2025-09-26 18:00:00+00:00,889.8991252194518
2025-09-26 19:00:00+00:00,889.8991252194518
2025-09-29 13:00:00+00:00,889.8991252194518
2025-09-29 14:00:00+00:00,889.8991252194518
2025-09-29 15:00:00+00:00,889.8991252194518
2025-09-29 16:00:00+00:00,889.8991252194518
2025-09-29 17:00:00+00:00,889.8991252194518
2025-09-29 18:00:00+00:00,889.8991252194518
2025-09-29 19:00:00+00:00,889.8991252194518
2025-09-30 13:00:00+00:00,889.8991252194518
2025-09-30 14:00:00+00:00,889.8991252194518
2025-09-30 15:00:00+00:00,889.8991252194518
2025-09-30 16:00:00+00:00,889.8991252194518
2025-09-30 17:00:00+00:00,889.8991252194518
2025-09-30 18:00:00+00:00,889.8991252194518
2025-09-30 19:00:00+00:00,889.8991252194518
2025-10-01 13:00:00+00:00,889.8991252194518
2025-10-01 14:00:00+00:00,889.8991252194518
2025-10-01 15:00:00+00:00,889.8991252194518
2025-10-01 16:00:00+00:00,889.8991252194518
2025-10-01 17:00:00+00:00,889.8991252194518
2025-10-01 18:00:00+00:00,889.8991252194518
2025-10-01 19:00:00+00:00,889.8991252194518
2025-10-02 13:00:00+00:00,889.8991252194518
2025-10-02 14:00:00+00:00,889.8991252194518
2025-10-02 15:00:00+00:00,889.8991252194518
2025-10-02 16:00:00+00:00,889.8991252194518
2025-10-02 17:00:00+00:00,889.8991252194518
2025-10-02 18:00:00+00:00,889.8991252194518
2025-10-02 19:00:00+00:00,889.8991252194518
2025-10-03 13:00:00+00:00,889.8991252194518
2025-10-03 14:00:00+00:00,889.8991252194518
2025-10-03 15:00:00+00:00,889.8991252194518
2025-10-03 16:00:00+00:00,889.8991252194518
2025-10-03 17:00:00+00:00,889.8991252194518
2025-10-03 18:00:00+00:00,889.8991252194518
2025-10-03 19:00:00+00:00,889.8991252194518
2025-10-06 13:00:00+00:00,889.8991252194518
2025-10-06 14:00:00+00:00,889.8991252194518
2025-10-06 15:00:00+00:00,889.8991252194518
2025-10-06 16:00:00+00:00,889.8991252194518
2025-10-06 17:00:00+00:00,889.8991252194518
2025-10-06 18:00:00+00:00,889.8991252194518
2025-10-06 19:00:00+00:00,889.8991252194518
2025-10-07 13:00:00+00:00,889.8991252194518
2025-10-07 14:00:00+00:00,889.8991252194518
2025-10-07 15:00:00+00:00,889.8991252194518
2025-10-07 16:00:00+00:00,889.8991252194518
2025-10-07 17:00:00+00:00,889.8991252194518
2025-10-07 18:00:00+00:00,889.8991252194518
2025-10-07 19:00:00+00:00,889.8991252194518
2025-10-08 13:00:00+00:00,889.8991252194518
2025-10-08 14:00:00+00:00,889.8991252194518
2025-10-08 15:00:00+00:00,889.8991252194518
2025-10-08 16:00:00+00:00,889.8991252194518
2025-10-08 17:00:00+00:00,889.8991252194518
2025-10-08 18:00:00+00:00,889.8991252194518
2025-10-08 19:00:00+00:00,889.8991252194518
2025-10-09 13:00:00+00:00,889.8991252194518
2025-10-09 14:00:00+00:00,889.8991252194518
2025-10-09 15:00:00+00:00,889.8991252194518
2025-10-09 16:00:00+00:00,889.8991252194518
2025-10-09 17:00:00+00:00,889.8991252194518
2025-10-09 18:00:00+00:00,889.8991252194518
2025-10-09 19:00:00+00:00,889.8991252194518
2025-10-10 13:00:00+00:00,889.8991252194518
2025-10-10 14:00:00+00:00,889.8991252194518
2025-10-10 15:00:00+00:00,889.8991252194518
2025-10-10 16:00:00+00:00,889.8991252194518
2025-10-10 17:00:00+00:00,889.8991252194518
2025-10-10 18:00:00+00:00,889.8991252194518
2025-10-10 19:00:00+00:00,889.8991252194518
2025-10-13 13:00:00+00:00,889.8991252194518
2025-10-13 14:00:00+00:00,889.8991252194518
2025-10-13 15:00:00+00:00,889.8991252194518
2025-10-13 16:00:00+00:00,889.8991252194518
2025-10-13 17:00:00+00:00,889.8991252194518
2025-10-13 18:00:00+00:00,889.8991252194518
2025-10-13 19:00:00+00:00,889.8991252194518
2025-10-14 13:00:00+00:00,889.8991252194518
2025-10-14 14:00:00+00:00,889.8991252194518
2025-10-14 15:00:00+00:00,889.8991252194518
2025-10-14 16:00:00+00:00,889.8991252194518
2025-10-14 17:00:00+00:00,889.8991252194518
2025-10-14 18:00:00+00:00,889.8991252194518
2025-10-14 19:00:00+00:00,889.8991252194518
2025-10-15 13:00:00+00:00,889.8991252194518
2025-10-15 14:00:00+00:00,889.8991252194518
2025-10-15 15:00:00+00:00,889.8991252194518
2025-10-15 16:00:00+00:00,889.8991252194518
2025-10-15 17:00:00+00:00,889.8991252194518
2025-10-15 18:00:00+00:00,889.8991252194518
2025-10-15 19:00:00+00:00,889.8991252194518
2025-10-16 13:00:00+00:00,889.8991252194518
2025-10-16 14:00:00+00:00,889.8991252194518
2025-10-16 15:00:00+00:00,889.8991252194518
2025-10-16 16:00:00+00:00,889.8991252194518
2025-10-16 17:00:00+00:00,889.8991252194518
2025-10-16 18:00:00+00:00,889.8991252194518
2025-10-16 19:00:00+00:00,889.8991252194518
2025-10-17 13:00:00+00:00,889.8991252194518
2025-10-17 14:00:00+00:00,889.8991252194518
2025-10-17 15:00:00+00:00,889.8991252194518
2025-10-17 16:00:00+00:00,889.8991252194518
2025-10-17 17:00:00+00:00,889.8991252194518
2025-10-17 18:00:00+00:00,889.8991252194518
2025-10-17 19:00:00+00:00,889.8991252194518
2025-10-20 13:00:00+00:00,889.8991252194518
2025-10-20 14:00:00+00:00,889.8991252194518
2025-10-20 15:00:00+00:00,889.8991252194518
2025-10-20 16:00:00+00:00,889.8991252194518
2025-10-20 17:00:00+00:00,889.8991252194518
2025-10-20 18:00:00+00:00,889.8991252194518
2025-10-20 19:00:00+00:00,889.8991252194518
2025-10-21 13:00:00+00:00,889.8991252194518
2025-10-21 14:00:00+00:00,889.8991252194518
2025-10-21 15:00:00+00:00,889.8991252194518
2025-10-21 16:00:00+00:00,889.8991252194518
2025-10-21 17:00:00+00:00,889.8991252194518
2025-10-21 18:00:00+00:00,889.8991252194518
2025-10-21 19:00:00+00:00,889.8991252194518
2025-10-22 13:00:00+00:00,889.8991252194518
2025-10-22 14:00:00+00:00,889.8991252194518
2025-10-22 15:00:00+00:00,889.8991252194518
2025-10-22 16:00:00+00:00,889.8991252194518
2025-10-22 17:00:00+00:00,889.8991252194518
2025-10-22 18:00:00+00:00,889.8991252194518
2025-10-22 19:00:00+00:00,889.8991252194518
