Date,0
2024-01-02 14:00:00+00:00,0.0
2024-01-02 15:00:00+00:00,0.0
2024-01-02 16:00:00+00:00,0.0
2024-01-02 17:00:00+00:00,0.0
2024-01-02 18:00:00+00:00,0.0
2024-01-02 19:00:00+00:00,0.0
2024-01-02 20:00:00+00:00,0.0
2024-01-03 14:00:00+00:00,0.0
2024-01-03 15:00:00+00:00,0.0
2024-01-03 16:00:00+00:00,0.0
2024-01-03 17:00:00+00:00,0.0
2024-01-03 18:00:00+00:00,0.0
2024-01-03 19:00:00+00:00,0.0
2024-01-03 20:00:00+00:00,0.0
2024-01-04 14:00:00+00:00,0.0
2024-01-04 15:00:00+00:00,0.0
2024-01-04 16:00:00+00:00,0.0
2024-01-04 17:00:00+00:00,0.0
2024-01-04 18:00:00+00:00,0.0
2024-01-04 19:00:00+00:00,0.0
2024-01-04 20:00:00+00:00,0.0
2024-01-05 14:00:00+00:00,0.0
2024-01-05 15:00:00+00:00,0.0
2024-01-05 16:00:00+00:00,0.0
2024-01-05 17:00:00+00:00,0.0
2024-01-05 18:00:00+00:00,0.0
2024-01-05 19:00:00+00:00,0.0
2024-01-05 20:00:00+00:00,0.0
2024-01-08 14:00:00+00:00,0.0
2024-01-08 15:00:00+00:00,0.0
2024-01-08 16:00:00+00:00,0.0
2024-01-08 17:00:00+00:00,0.0
2024-01-08 18:00:00+00:00,0.0
2024-01-08 19:00:00+00:00,0.0
2024-01-08 20:00:00+00:00,0.0
2024-01-09 14:00:00+00:00,0.0
2024-01-09 15:00:00+00:00,0.0
2024-01-09 16:00:00+00:00,0.0
2024-01-09 17:00:00+00:00,0.0
2024-01-09 18:00:00+00:00,0.0
2024-01-09 19:00:00+00:00,0.0
2024-01-09 20:00:00+00:00,0.0
2024-01-10 14:00:00+00:00,0.0
2024-01-10 15:00:00+00:00,0.0
2024-01-10 16:00:00+00:00,0.0
2024-01-10 17:00:00+00:00,0.0
2024-01-10 18:00:00+00:00,0.0
2024-01-10 19:00:00+00:00,0.0
2024-01-10 20:00:00+00:00,0.0
2024-01-11 14:00:00+00:00,0.0
2024-01-11 15:00:00+00:00,0.0
2024-01-11 16:00:00+00:00,0.0
2024-01-11 17:00:00+00:00,0.0
2024-01-11 18:00:00+00:00,0.0
2024-01-11 19:00:00+00:00,0.0
2024-01-11 20:00:00+00:00,0.0
2024-01-12 14:00:00+00:00,0.0
2024-01-12 15:00:00+00:00,0.0
2024-01-12 16:00:00+00:00,0.0
2024-01-12 17:00:00+00:00,0.0
2024-01-12 18:00:00+00:00,0.0
2024-01-12 19:00:00+00:00,0.0
2024-01-12 20:00:00+00:00,0.0
2024-01-16 14:00:00+00:00,0.0
2024-01-16 15:00:00+00:00,0.0
2024-01-16 16:00:00+00:00,0.0
2024-01-16 17:00:00+00:00,0.0
2024-01-16 18:00:00+00:00,0.0
2024-01-16 19:00:00+00:00,0.0
2024-01-16 20:00:00+00:00,0.0
2024-01-17 14:00:00+00:00,0.0
2024-01-17 15:00:00+00:00,0.0
2024-01-17 16:00:00+00:00,0.0
2024-01-17 17:00:00+00:00,0.0
2024-01-17 18:00:00+00:00,0.0
2024-01-17 19:00:00+00:00,0.0
2024-01-17 20:00:00+00:00,0.0
2024-01-18 14:00:00+00:00,0.0
2024-01-18 15:00:00+00:00,0.0
2024-01-18 16:00:00+00:00,0.0
2024-01-18 17:00:00+00:00,0.0
2024-01-18 18:00:00+00:00,0.0
2024-01-18 19:00:00+00:00,0.0
2024-01-18 20:00:00+00:00,0.0
2024-01-19 14:00:00+00:00,0.0
2024-01-19 15:00:00+00:00,0.0
2024-01-19 16:00:00+00:00,0.0
2024-01-19 17:00:00+00:00,0.0
2024-01-19 18:00:00+00:00,0.0
2024-01-19 19:00:00+00:00,0.0
2024-01-19 20:00:00+00:00,0.0
2024-01-22 14:00:00+00:00,0.0
2024-01-22 15:00:00+00:00,0.0
2024-01-22 16:00:00+00:00,0.0
2024-01-22 17:00:00+00:00,0.0
2024-01-22 18:00:00+00:00,0.0
2024-01-22 19:00:00+00:00,0.0
2024-01-22 20:00:00+00:00,0.0
2024-01-23 14:00:00+00:00,0.0
2024-01-23 15:00:00+00:00,0.0
2024-01-23 16:00:00+00:00,0.0
2024-01-23 17:00:00+00:00,0.0
2024-01-23 18:00:00+00:00,0.0
2024-01-23 19:00:00+00:00,0.0
2024-01-23 20:00:00+00:00,0.0
2024-01-24 14:00:00+00:00,0.0
2024-01-24 15:00:00+00:00,0.0
2024-01-24 16:00:00+00:00,0.0
2024-01-24 17:00:00+00:00,0.0
2024-01-24 18:00:00+00:00,0.0
2024-01-24 19:00:00+00:00,0.0
2024-01-24 20:00:00+00:00,0.0
2024-01-25 14:00:00+00:00,0.0
2024-01-25 15:00:00+00:00,0.0
2024-01-25 16:00:00+00:00,0.0
2024-01-25 17:00:00+00:00,0.0
2024-01-25 18:00:00+00:00,0.0
2024-01-25 19:00:00+00:00,0.0
2024-01-25 20:00:00+00:00,0.0
2024-01-26 14:00:00+00:00,0.0
2024-01-26 15:00:00+00:00,0.0
2024-01-26 16:00:00+00:00,0.0
2024-01-26 17:00:00+00:00,0.0
2024-01-26 18:00:00+00:00,0.0
2024-01-26 19:00:00+00:00,0.0
2024-01-26 20:00:00+00:00,0.0
2024-01-29 14:00:00+00:00,0.0
2024-01-29 15:00:00+00:00,0.0
2024-01-29 16:00:00+00:00,0.0
2024-01-29 17:00:00+00:00,0.0
2024-01-29 18:00:00+00:00,0.0
2024-01-29 19:00:00+00:00,0.0
2024-01-29 20:00:00+00:00,0.0
2024-01-30 14:00:00+00:00,0.0
2024-01-30 15:00:00+00:00,0.0
2024-01-30 16:00:00+00:00,0.0
2024-01-30 17:00:00+00:00,0.0
2024-01-30 18:00:00+00:00,0.0
2024-01-30 19:00:00+00:00,0.0
2024-01-30 20:00:00+00:00,0.0
2024-01-31 14:00:00+00:00,0.0
2024-01-31 15:00:00+00:00,0.0
2024-01-31 16:00:00+00:00,0.0
2024-01-31 17:00:00+00:00,0.0
2024-01-31 18:00:00+00:00,0.0
2024-01-31 19:00:00+00:00,0.0
2024-01-31 20:00:00+00:00,0.0
2024-02-01 14:00:00+00:00,0.0
2024-02-01 15:00:00+00:00,0.0
2024-02-01 16:00:00+00:00,0.0
2024-02-01 17:00:00+00:00,0.0
2024-02-01 18:00:00+00:00,0.0
2024-02-01 19:00:00+00:00,0.0
2024-02-01 20:00:00+00:00,0.0
2024-02-02 14:00:00+00:00,0.0
2024-02-02 15:00:00+00:00,0.0
2024-02-02 16:00:00+00:00,0.0
2024-02-02 17:00:00+00:00,0.0
2024-02-02 18:00:00+00:00,0.0
2024-02-02 19:00:00+00:00,0.0
2024-02-02 20:00:00+00:00,0.0
2024-02-05 14:00:00+00:00,0.0
2024-02-05 15:00:00+00:00,0.0
2024-02-05 16:00:00+00:00,0.0
2024-02-05 17:00:00+00:00,0.0
2024-02-05 18:00:00+00:00,0.0
2024-02-05 19:00:00+00:00,0.0
2024-02-05 20:00:00+00:00,0.0
2024-02-06 14:00:00+00:00,0.0
2024-02-06 15:00:00+00:00,0.0
2024-02-06 16:00:00+00:00,0.0
2024-02-06 17:00:00+00:00,0.0
2024-02-06 18:00:00+00:00,0.0
2024-02-06 19:00:00+00:00,0.0
2024-02-06 20:00:00+00:00,0.0
2024-02-07 14:00:00+00:00,0.0
2024-02-07 15:00:00+00:00,0.0
2024-02-07 16:00:00+00:00,0.0
2024-02-07 17:00:00+00:00,0.0
2024-02-07 18:00:00+00:00,0.0
2024-02-07 19:00:00+00:00,0.0
2024-02-07 20:00:00+00:00,0.0
2024-02-08 14:00:00+00:00,0.0
2024-02-08 15:00:00+00:00,0.0
2024-02-08 16:00:00+00:00,0.0
2024-02-08 17:00:00+00:00,0.0
2024-02-08 18:00:00+00:00,0.0
2024-02-08 19:00:00+00:00,0.0
2024-02-08 20:00:00+00:00,0.0
2024-02-09 14:00:00+00:00,0.0
2024-02-09 15:00:00+00:00,0.0
2024-02-09 16:00:00+00:00,0.0
2024-02-09 17:00:00+00:00,0.0
2024-02-09 18:00:00+00:00,0.0
2024-02-09 19:00:00+00:00,0.0
2024-02-09 20:00:00+00:00,0.0
2024-02-12 14:00:00+00:00,0.0
2024-02-12 15:00:00+00:00,0.0
2024-02-12 16:00:00+00:00,0.0
2024-02-12 17:00:00+00:00,0.0
2024-02-12 18:00:00+00:00,0.0
2024-02-12 19:00:00+00:00,0.0
2024-02-12 20:00:00+00:00,0.0
2024-02-13 14:00:00+00:00,0.0
2024-02-13 15:00:00+00:00,0.0
2024-02-13 16:00:00+00:00,0.0
2024-02-13 17:00:00+00:00,0.0
2024-02-13 18:00:00+00:00,0.0
2024-02-13 19:00:00+00:00,0.0
2024-02-13 20:00:00+00:00,0.0
2024-02-14 14:00:00+00:00,0.0
2024-02-14 15:00:00+00:00,0.0
2024-02-14 16:00:00+00:00,0.0
2024-02-14 17:00:00+00:00,0.0
2024-02-14 18:00:00+00:00,0.0
2024-02-14 19:00:00+00:00,0.0
2024-02-14 20:00:00+00:00,0.0
2024-02-15 14:00:00+00:00,0.0
2024-02-15 15:00:00+00:00,0.0
2024-02-15 16:00:00+00:00,0.0
2024-02-15 17:00:00+00:00,0.0
2024-02-15 18:00:00+00:00,0.0
2024-02-15 19:00:00+00:00,0.0
2024-02-15 20:00:00+00:00,0.0
2024-02-16 14:00:00+00:00,0.0
2024-02-16 15:00:00+00:00,0.0
2024-02-16 16:00:00+00:00,0.0
2024-02-16 17:00:00+00:00,0.0
2024-02-16 18:00:00+00:00,0.0
2024-02-16 19:00:00+00:00,0.0
2024-02-16 20:00:00+00:00,0.0
2024-02-20 14:00:00+00:00,0.0
2024-02-20 15:00:00+00:00,0.0
2024-02-20 16:00:00+00:00,0.0
2024-02-20 17:00:00+00:00,0.0
2024-02-20 18:00:00+00:00,0.0
2024-02-20 19:00:00+00:00,0.0
2024-02-20 20:00:00+00:00,0.0
2024-02-21 14:00:00+00:00,0.0
2024-02-21 15:00:00+00:00,0.0
2024-02-21 16:00:00+00:00,0.0
2024-02-21 17:00:00+00:00,0.0
2024-02-21 18:00:00+00:00,0.0
2024-02-21 19:00:00+00:00,0.0
2024-02-21 20:00:00+00:00,0.0
2024-02-22 14:00:00+00:00,0.0
2024-02-22 15:00:00+00:00,0.0
2024-02-22 16:00:00+00:00,0.0
2024-02-22 17:00:00+00:00,0.0
2024-02-22 18:00:00+00:00,0.0
2024-02-22 19:00:00+00:00,0.0
2024-02-22 20:00:00+00:00,0.0
2024-02-23 14:00:00+00:00,0.0
2024-02-23 15:00:00+00:00,0.0
2024-02-23 16:00:00+00:00,0.0
2024-02-23 17:00:00+00:00,0.0
2024-02-23 18:00:00+00:00,0.0
2024-02-23 19:00:00+00:00,0.0
2024-02-23 20:00:00+00:00,0.0
2024-02-26 14:00:00+00:00,0.0
2024-02-26 15:00:00+00:00,0.0
2024-02-26 16:00:00+00:00,0.0
2024-02-26 17:00:00+00:00,0.0
2024-02-26 18:00:00+00:00,0.0
2024-02-26 19:00:00+00:00,0.0
2024-02-26 20:00:00+00:00,0.0
2024-02-27 14:00:00+00:00,0.0
2024-02-27 15:00:00+00:00,0.0
2024-02-27 16:00:00+00:00,0.0
2024-02-27 17:00:00+00:00,0.0
2024-02-27 18:00:00+00:00,0.0
2024-02-27 19:00:00+00:00,0.0
2024-02-27 20:00:00+00:00,0.0
2024-02-28 14:00:00+00:00,0.0
2024-02-28 15:00:00+00:00,0.0
2024-02-28 16:00:00+00:00,0.0
2024-02-28 17:00:00+00:00,0.0
2024-02-28 18:00:00+00:00,0.0
2024-02-28 19:00:00+00:00,0.0
2024-02-28 20:00:00+00:00,0.0
2024-02-29 14:00:00+00:00,0.0
2024-02-29 15:00:00+00:00,0.0
2024-02-29 16:00:00+00:00,0.0
2024-02-29 17:00:00+00:00,0.0
2024-02-29 18:00:00+00:00,0.0
2024-02-29 19:00:00+00:00,0.0
2024-02-29 20:00:00+00:00,0.0
2024-03-01 14:00:00+00:00,0.0
2024-03-01 15:00:00+00:00,0.0
2024-03-01 16:00:00+00:00,0.0
2024-03-01 17:00:00+00:00,0.0
2024-03-01 18:00:00+00:00,0.0
2024-03-01 19:00:00+00:00,0.0
2024-03-01 20:00:00+00:00,0.0
2024-03-04 14:00:00+00:00,0.0
2024-03-04 15:00:00+00:00,0.0
2024-03-04 16:00:00+00:00,0.0
2024-03-04 17:00:00+00:00,0.0
2024-03-04 18:00:00+00:00,0.0
2024-03-04 19:00:00+00:00,0.0
2024-03-04 20:00:00+00:00,0.0
2024-03-05 14:00:00+00:00,0.0
2024-03-05 15:00:00+00:00,0.0
2024-03-05 16:00:00+00:00,0.0
2024-03-05 17:00:00+00:00,0.0
2024-03-05 18:00:00+00:00,0.0
2024-03-05 19:00:00+00:00,0.0
2024-03-05 20:00:00+00:00,0.0
2024-03-06 14:00:00+00:00,0.0
2024-03-06 15:00:00+00:00,0.0
2024-03-06 16:00:00+00:00,0.0
2024-03-06 17:00:00+00:00,0.0
2024-03-06 18:00:00+00:00,0.0
2024-03-06 19:00:00+00:00,0.0
2024-03-06 20:00:00+00:00,0.0
2024-03-07 14:00:00+00:00,0.0
2024-03-07 15:00:00+00:00,0.0
2024-03-07 16:00:00+00:00,0.0
2024-03-07 17:00:00+00:00,0.0
2024-03-07 18:00:00+00:00,0.0
2024-03-07 19:00:00+00:00,0.0
2024-03-07 20:00:00+00:00,0.0
2024-03-08 14:00:00+00:00,0.0
2024-03-08 15:00:00+00:00,0.0
2024-03-08 16:00:00+00:00,0.0
2024-03-08 17:00:00+00:00,0.0
2024-03-08 18:00:00+00:00,0.0
2024-03-08 19:00:00+00:00,0.0
2024-03-08 20:00:00+00:00,0.0
2024-03-11 13:00:00+00:00,0.0
2024-03-11 14:00:00+00:00,0.0
2024-03-11 15:00:00+00:00,0.0
2024-03-11 16:00:00+00:00,0.0
2024-03-11 17:00:00+00:00,0.0
2024-03-11 18:00:00+00:00,0.0
2024-03-11 19:00:00+00:00,0.0
2024-03-12 13:00:00+00:00,0.0
2024-03-12 14:00:00+00:00,0.0
2024-03-12 15:00:00+00:00,0.0
2024-03-12 16:00:00+00:00,0.0
2024-03-12 17:00:00+00:00,0.0
2024-03-12 18:00:00+00:00,0.0
2024-03-12 19:00:00+00:00,0.0
2024-03-13 13:00:00+00:00,0.0
2024-03-13 14:00:00+00:00,0.0
2024-03-13 15:00:00+00:00,0.0
2024-03-13 16:00:00+00:00,0.0
2024-03-13 17:00:00+00:00,0.0
2024-03-13 18:00:00+00:00,0.0
2024-03-13 19:00:00+00:00,0.0
2024-03-14 13:00:00+00:00,0.0
2024-03-14 14:00:00+00:00,0.0
2024-03-14 15:00:00+00:00,0.0
2024-03-14 16:00:00+00:00,0.0
2024-03-14 17:00:00+00:00,0.0
2024-03-14 18:00:00+00:00,0.0
2024-03-14 19:00:00+00:00,0.0
2024-03-15 13:00:00+00:00,0.0
2024-03-15 14:00:00+00:00,0.0
2024-03-15 15:00:00+00:00,0.0
2024-03-15 16:00:00+00:00,0.0
2024-03-15 17:00:00+00:00,0.0
2024-03-15 18:00:00+00:00,0.0
2024-03-15 19:00:00+00:00,0.0
2024-03-18 13:00:00+00:00,0.0
2024-03-18 14:00:00+00:00,0.0
2024-03-18 15:00:00+00:00,0.0
2024-03-18 16:00:00+00:00,0.0
2024-03-18 17:00:00+00:00,0.0
2024-03-18 18:00:00+00:00,0.0
2024-03-18 19:00:00+00:00,0.0
2024-03-19 13:00:00+00:00,0.0
2024-03-19 14:00:00+00:00,0.0
2024-03-19 15:00:00+00:00,0.0
2024-03-19 16:00:00+00:00,0.0
2024-03-19 17:00:00+00:00,0.0
2024-03-19 18:00:00+00:00,0.0
2024-03-19 19:00:00+00:00,0.0
2024-03-20 13:00:00+00:00,0.0
2024-03-20 14:00:00+00:00,0.0
2024-03-20 15:00:00+00:00,0.0
2024-03-20 16:00:00+00:00,0.0
2024-03-20 17:00:00+00:00,0.0
2024-03-20 18:00:00+00:00,0.0
2024-03-20 19:00:00+00:00,0.0
2024-03-21 13:00:00+00:00,0.0
2024-03-21 14:00:00+00:00,0.0
2024-03-21 15:00:00+00:00,0.0
2024-03-21 16:00:00+00:00,0.0
2024-03-21 17:00:00+00:00,0.0
2024-03-21 18:00:00+00:00,0.0
2024-03-21 19:00:00+00:00,0.0
2024-03-22 13:00:00+00:00,0.0
2024-03-22 14:00:00+00:00,0.0
2024-03-22 15:00:00+00:00,0.0
2024-03-22 16:00:00+00:00,0.0
2024-03-22 17:00:00+00:00,0.0
2024-03-22 18:00:00+00:00,0.0
2024-03-22 19:00:00+00:00,0.0
2024-03-25 13:00:00+00:00,0.0
2024-03-25 14:00:00+00:00,0.0
2024-03-25 15:00:00+00:00,0.0
2024-03-25 16:00:00+00:00,0.0
2024-03-25 17:00:00+00:00,0.0
2024-03-25 18:00:00+00:00,0.0
2024-03-25 19:00:00+00:00,0.0
2024-03-26 13:00:00+00:00,0.0
2024-03-26 14:00:00+00:00,0.0
2024-03-26 15:00:00+00:00,0.0
2024-03-26 16:00:00+00:00,0.0
2024-03-26 17:00:00+00:00,0.0
2024-03-26 18:00:00+00:00,0.0
2024-03-26 19:00:00+00:00,0.0
2024-03-27 13:00:00+00:00,0.0
2024-03-27 14:00:00+00:00,0.0
2024-03-27 15:00:00+00:00,0.0
2024-03-27 16:00:00+00:00,0.0
2024-03-27 17:00:00+00:00,0.0
2024-03-27 18:00:00+00:00,0.0
2024-03-27 19:00:00+00:00,0.0
2024-03-28 13:00:00+00:00,0.0
2024-03-28 14:00:00+00:00,0.0
2024-03-28 15:00:00+00:00,0.0
2024-03-28 16:00:00+00:00,0.0
2024-03-28 17:00:00+00:00,0.0
2024-03-28 18:00:00+00:00,0.0
2024-03-28 19:00:00+00:00,0.0
2024-04-01 13:00:00+00:00,0.0
2024-04-01 14:00:00+00:00,0.0
2024-04-01 15:00:00+00:00,0.0
2024-04-01 16:00:00+00:00,0.0
2024-04-01 17:00:00+00:00,0.0
2024-04-01 18:00:00+00:00,0.0
2024-04-01 19:00:00+00:00,0.0
2024-04-02 13:00:00+00:00,0.0
2024-04-02 14:00:00+00:00,0.0
2024-04-02 15:00:00+00:00,0.0
2024-04-02 16:00:00+00:00,0.0
2024-04-02 17:00:00+00:00,0.0
2024-04-02 18:00:00+00:00,0.0
2024-04-02 19:00:00+00:00,0.0
2024-04-03 13:00:00+00:00,0.0
2024-04-03 14:00:00+00:00,0.0
2024-04-03 15:00:00+00:00,0.0
2024-04-03 16:00:00+00:00,0.0
2024-04-03 17:00:00+00:00,0.0
2024-04-03 18:00:00+00:00,0.0
2024-04-03 19:00:00+00:00,0.0
2024-04-04 13:00:00+00:00,0.0
2024-04-04 14:00:00+00:00,0.0
2024-04-04 15:00:00+00:00,0.0
2024-04-04 16:00:00+00:00,0.0
2024-04-04 17:00:00+00:00,0.0
2024-04-04 18:00:00+00:00,0.0
2024-04-04 19:00:00+00:00,0.0
2024-04-05 13:00:00+00:00,0.0
2024-04-05 14:00:00+00:00,0.0
2024-04-05 15:00:00+00:00,0.0
2024-04-05 16:00:00+00:00,0.0
2024-04-05 17:00:00+00:00,0.0
2024-04-05 18:00:00+00:00,0.0
2024-04-05 19:00:00+00:00,0.0
2024-04-08 13:00:00+00:00,0.0
2024-04-08 14:00:00+00:00,0.0
2024-04-08 15:00:00+00:00,0.0
2024-04-08 16:00:00+00:00,0.0
2024-04-08 17:00:00+00:00,0.0
2024-04-08 18:00:00+00:00,0.0
2024-04-08 19:00:00+00:00,0.0
2024-04-09 13:00:00+00:00,0.0
2024-04-09 14:00:00+00:00,0.0
2024-04-09 15:00:00+00:00,0.0
2024-04-09 16:00:00+00:00,0.0
2024-04-09 17:00:00+00:00,0.0
2024-04-09 18:00:00+00:00,0.0
2024-04-09 19:00:00+00:00,0.0
2024-04-10 13:00:00+00:00,0.0
2024-04-10 14:00:00+00:00,0.0
2024-04-10 15:00:00+00:00,0.0
2024-04-10 16:00:00+00:00,0.0
2024-04-10 17:00:00+00:00,0.0
2024-04-10 18:00:00+00:00,0.0
2024-04-10 19:00:00+00:00,0.0
2024-04-11 13:00:00+00:00,0.0
2024-04-11 14:00:00+00:00,0.0
2024-04-11 15:00:00+00:00,0.0
2024-04-11 16:00:00+00:00,0.0
2024-04-11 17:00:00+00:00,0.0
2024-04-11 18:00:00+00:00,0.0
2024-04-11 19:00:00+00:00,0.0
2024-04-12 13:00:00+00:00,0.0
2024-04-12 14:00:00+00:00,0.0
2024-04-12 15:00:00+00:00,0.0
2024-04-12 16:00:00+00:00,0.0
2024-04-12 17:00:00+00:00,0.0
2024-04-12 18:00:00+00:00,0.0
2024-04-12 19:00:00+00:00,0.0
2024-04-15 13:00:00+00:00,0.0
2024-04-15 14:00:00+00:00,0.0
2024-04-15 15:00:00+00:00,0.0
2024-04-15 16:00:00+00:00,0.0
2024-04-15 17:00:00+00:00,0.0
2024-04-15 18:00:00+00:00,0.0
2024-04-15 19:00:00+00:00,0.0
2024-04-16 13:00:00+00:00,0.0
2024-04-16 14:00:00+00:00,0.0
2024-04-16 15:00:00+00:00,0.0
2024-04-16 16:00:00+00:00,0.0
2024-04-16 17:00:00+00:00,0.0
2024-04-16 18:00:00+00:00,0.0
2024-04-16 19:00:00+00:00,0.0
2024-04-17 13:00:00+00:00,0.0
2024-04-17 14:00:00+00:00,0.0
2024-04-17 15:00:00+00:00,0.0
2024-04-17 16:00:00+00:00,0.0
2024-04-17 17:00:00+00:00,0.0
2024-04-17 18:00:00+00:00,0.0
2024-04-17 19:00:00+00:00,0.0
2024-04-18 13:00:00+00:00,0.0
2024-04-18 14:00:00+00:00,0.0
2024-04-18 15:00:00+00:00,0.0
2024-04-18 16:00:00+00:00,0.0
2024-04-18 17:00:00+00:00,0.0
2024-04-18 18:00:00+00:00,0.0
2024-04-18 19:00:00+00:00,0.0
2024-04-19 13:00:00+00:00,0.0
2024-04-19 14:00:00+00:00,0.0
2024-04-19 15:00:00+00:00,0.0
2024-04-19 16:00:00+00:00,0.0
2024-04-19 17:00:00+00:00,0.0
2024-04-19 18:00:00+00:00,0.0
2024-04-19 19:00:00+00:00,0.0
2024-04-22 13:00:00+00:00,0.0
2024-04-22 14:00:00+00:00,0.0
2024-04-22 15:00:00+00:00,0.0
2024-04-22 16:00:00+00:00,0.0
2024-04-22 17:00:00+00:00,0.0
2024-04-22 18:00:00+00:00,0.0
2024-04-22 19:00:00+00:00,0.0
2024-04-23 13:00:00+00:00,0.0
2024-04-23 14:00:00+00:00,0.0
2024-04-23 15:00:00+00:00,0.0
2024-04-23 16:00:00+00:00,0.0
2024-04-23 17:00:00+00:00,0.0
2024-04-23 18:00:00+00:00,0.0
2024-04-23 19:00:00+00:00,0.0
2024-04-24 13:00:00+00:00,0.0
2024-04-24 14:00:00+00:00,0.0
2024-04-24 15:00:00+00:00,0.0
2024-04-24 16:00:00+00:00,0.0
2024-04-24 17:00:00+00:00,0.0
2024-04-24 18:00:00+00:00,0.0
2024-04-24 19:00:00+00:00,0.0
2024-04-25 13:00:00+00:00,0.0
2024-04-25 14:00:00+00:00,0.0
2024-04-25 15:00:00+00:00,0.0
2024-04-25 16:00:00+00:00,0.0
2024-04-25 17:00:00+00:00,0.0
2024-04-25 18:00:00+00:00,0.0
2024-04-25 19:00:00+00:00,0.0
2024-04-26 13:00:00+00:00,0.0
2024-04-26 14:00:00+00:00,0.0
2024-04-26 15:00:00+00:00,0.0
2024-04-26 16:00:00+00:00,0.0
2024-04-26 17:00:00+00:00,0.0
2024-04-26 18:00:00+00:00,0.0
2024-04-26 19:00:00+00:00,0.0
2024-04-29 13:00:00+00:00,0.0
2024-04-29 14:00:00+00:00,0.0
2024-04-29 15:00:00+00:00,0.0
2024-04-29 16:00:00+00:00,0.0
2024-04-29 17:00:00+00:00,0.0
2024-04-29 18:00:00+00:00,0.0
2024-04-29 19:00:00+00:00,0.0
2024-04-30 13:00:00+00:00,0.0
2024-04-30 14:00:00+00:00,0.0
2024-04-30 15:00:00+00:00,0.0
2024-04-30 16:00:00+00:00,0.0
2024-04-30 17:00:00+00:00,0.0
2024-04-30 18:00:00+00:00,0.0
2024-04-30 19:00:00+00:00,0.0
2024-05-01 13:00:00+00:00,0.0
2024-05-01 14:00:00+00:00,0.0
2024-05-01 15:00:00+00:00,0.0
2024-05-01 16:00:00+00:00,0.0
2024-05-01 17:00:00+00:00,0.0
2024-05-01 18:00:00+00:00,0.0
2024-05-01 19:00:00+00:00,0.0
2024-05-02 13:00:00+00:00,0.0
2024-05-02 14:00:00+00:00,0.0
2024-05-02 15:00:00+00:00,0.0
2024-05-02 16:00:00+00:00,0.0
2024-05-02 17:00:00+00:00,0.0
2024-05-02 18:00:00+00:00,0.0
2024-05-02 19:00:00+00:00,0.0
2024-05-03 13:00:00+00:00,0.0
2024-05-03 14:00:00+00:00,0.0
2024-05-03 15:00:00+00:00,0.0
2024-05-03 16:00:00+00:00,0.0
2024-05-03 17:00:00+00:00,0.0
2024-05-03 18:00:00+00:00,0.0
2024-05-03 19:00:00+00:00,0.0
2024-05-06 13:00:00+00:00,0.0
2024-05-06 14:00:00+00:00,0.0
2024-05-06 15:00:00+00:00,0.0
2024-05-06 16:00:00+00:00,0.0
2024-05-06 17:00:00+00:00,0.0
2024-05-06 18:00:00+00:00,0.0
2024-05-06 19:00:00+00:00,0.0
2024-05-07 13:00:00+00:00,0.0
2024-05-07 14:00:00+00:00,0.0
2024-05-07 15:00:00+00:00,0.0
2024-05-07 16:00:00+00:00,0.0
2024-05-07 17:00:00+00:00,0.0
2024-05-07 18:00:00+00:00,0.0
2024-05-07 19:00:00+00:00,0.0
2024-05-08 13:00:00+00:00,0.0
2024-05-08 14:00:00+00:00,0.0
2024-05-08 15:00:00+00:00,0.0
2024-05-08 16:00:00+00:00,0.0
2024-05-08 17:00:00+00:00,0.0
2024-05-08 18:00:00+00:00,0.0
2024-05-08 19:00:00+00:00,0.0
2024-05-09 13:00:00+00:00,0.0
2024-05-09 14:00:00+00:00,0.0
2024-05-09 15:00:00+00:00,0.0
2024-05-09 16:00:00+00:00,0.0
2024-05-09 17:00:00+00:00,0.0
2024-05-09 18:00:00+00:00,0.0
2024-05-09 19:00:00+00:00,0.0
2024-05-10 13:00:00+00:00,0.0
2024-05-10 14:00:00+00:00,0.0
2024-05-10 15:00:00+00:00,0.0
2024-05-10 16:00:00+00:00,0.0
2024-05-10 17:00:00+00:00,0.0
2024-05-10 18:00:00+00:00,0.0
2024-05-10 19:00:00+00:00,0.0
2024-05-13 13:00:00+00:00,0.0
2024-05-13 14:00:00+00:00,0.0
2024-05-13 15:00:00+00:00,0.0
2024-05-13 16:00:00+00:00,0.0
2024-05-13 17:00:00+00:00,0.0
2024-05-13 18:00:00+00:00,0.0
2024-05-13 19:00:00+00:00,0.0
2024-05-14 13:00:00+00:00,0.0
2024-05-14 14:00:00+00:00,0.0
2024-05-14 15:00:00+00:00,0.0
2024-05-14 16:00:00+00:00,0.0
2024-05-14 17:00:00+00:00,0.0
2024-05-14 18:00:00+00:00,0.0
2024-05-14 19:00:00+00:00,0.0
2024-05-15 13:00:00+00:00,0.0
2024-05-15 14:00:00+00:00,0.0
2024-05-15 15:00:00+00:00,0.0
2024-05-15 16:00:00+00:00,0.0
2024-05-15 17:00:00+00:00,0.0
2024-05-15 18:00:00+00:00,0.0
2024-05-15 19:00:00+00:00,0.0
2024-05-16 13:00:00+00:00,0.0
2024-05-16 14:00:00+00:00,0.0
2024-05-16 15:00:00+00:00,0.0
2024-05-16 16:00:00+00:00,0.0
2024-05-16 17:00:00+00:00,0.0
2024-05-16 18:00:00+00:00,0.0
2024-05-16 19:00:00+00:00,0.0
2024-05-17 13:00:00+00:00,0.0
2024-05-17 14:00:00+00:00,0.0
2024-05-17 15:00:00+00:00,0.0
2024-05-17 16:00:00+00:00,0.0
2024-05-17 17:00:00+00:00,0.0
2024-05-17 18:00:00+00:00,0.0
2024-05-17 19:00:00+00:00,0.0
2024-05-20 13:00:00+00:00,0.0
2024-05-20 14:00:00+00:00,0.0
2024-05-20 15:00:00+00:00,0.0
2024-05-20 16:00:00+00:00,0.0
2024-05-20 17:00:00+00:00,0.0
2024-05-20 18:00:00+00:00,0.0
2024-05-20 19:00:00+00:00,0.0
2024-05-21 13:00:00+00:00,0.0
2024-05-21 14:00:00+00:00,0.0
2024-05-21 15:00:00+00:00,0.0
2024-05-21 16:00:00+00:00,0.0
2024-05-21 17:00:00+00:00,0.0
2024-05-21 18:00:00+00:00,0.0
2024-05-21 19:00:00+00:00,0.0
2024-05-22 13:00:00+00:00,0.0
2024-05-22 14:00:00+00:00,0.0
2024-05-22 15:00:00+00:00,0.0
2024-05-22 16:00:00+00:00,0.0
2024-05-22 17:00:00+00:00,0.0
2024-05-22 18:00:00+00:00,0.0
2024-05-22 19:00:00+00:00,0.0
2024-05-23 13:00:00+00:00,0.0
2024-05-23 14:00:00+00:00,0.0
2024-05-23 15:00:00+00:00,0.0
2024-05-23 16:00:00+00:00,0.0
2024-05-23 17:00:00+00:00,0.0
2024-05-23 18:00:00+00:00,0.0
2024-05-23 19:00:00+00:00,0.0
2024-05-24 13:00:00+00:00,0.0
2024-05-24 14:00:00+00:00,0.0
2024-05-24 15:00:00+00:00,0.0
2024-05-24 16:00:00+00:00,0.0
2024-05-24 17:00:00+00:00,0.0
2024-05-24 18:00:00+00:00,0.0
2024-05-24 19:00:00+00:00,0.0
2024-05-28 13:00:00+00:00,0.0
2024-05-28 14:00:00+00:00,0.0
2024-05-28 15:00:00+00:00,0.0
2024-05-28 16:00:00+00:00,0.0
2024-05-28 17:00:00+00:00,0.0
2024-05-28 18:00:00+00:00,0.0
2024-05-28 19:00:00+00:00,0.0
2024-05-29 13:00:00+00:00,0.0
2024-05-29 14:00:00+00:00,0.0
2024-05-29 15:00:00+00:00,0.0
2024-05-29 16:00:00+00:00,0.0
2024-05-29 17:00:00+00:00,0.0
2024-05-29 18:00:00+00:00,0.0
2024-05-29 19:00:00+00:00,0.0
2024-05-30 13:00:00+00:00,0.0
2024-05-30 14:00:00+00:00,0.0
2024-05-30 15:00:00+00:00,0.0
2024-05-30 16:00:00+00:00,0.0
2024-05-30 17:00:00+00:00,0.0
2024-05-30 18:00:00+00:00,0.0
2024-05-30 19:00:00+00:00,0.0
2024-05-31 13:00:00+00:00,0.0
2024-05-31 14:00:00+00:00,0.0
2024-05-31 15:00:00+00:00,0.0
2024-05-31 16:00:00+00:00,0.0
2024-05-31 17:00:00+00:00,0.0
2024-05-31 18:00:00+00:00,0.0
2024-05-31 19:00:00+00:00,0.0
2024-06-03 13:00:00+00:00,0.0
2024-06-03 14:00:00+00:00,0.0
2024-06-03 15:00:00+00:00,0.0
2024-06-03 16:00:00+00:00,0.0
2024-06-03 17:00:00+00:00,0.0
2024-06-03 18:00:00+00:00,0.0
2024-06-03 19:00:00+00:00,0.0
2024-06-04 13:00:00+00:00,0.0
2024-06-04 14:00:00+00:00,0.0
2024-06-04 15:00:00+00:00,0.0
2024-06-04 16:00:00+00:00,0.0
2024-06-04 17:00:00+00:00,0.0
2024-06-04 18:00:00+00:00,0.0
2024-06-04 19:00:00+00:00,0.0
2024-06-05 13:00:00+00:00,0.0
2024-06-05 14:00:00+00:00,0.0
2024-06-05 17:00:00+00:00,0.0
2024-06-05 19:00:00+00:00,0.0
2024-06-06 13:00:00+00:00,0.0
2024-06-06 14:00:00+00:00,0.0
2024-06-07 13:00:00+00:00,0.0
2024-06-07 14:00:00+00:00,-63.694096845976276
2024-06-07 15:00:00+00:00,-34.835235070770864
2024-06-07 16:00:00+00:00,-57.70449897146355
2024-06-07 17:00:00+00:00,4.732811769343101
2024-06-07 18:00:00+00:00,4.580091056344308
2024-06-07 19:00:00+00:00,-24.124038585335455
2024-06-10 13:00:00+00:00,6.218745466881316
2024-06-10 14:00:00+00:00,47.90741361644709
2024-06-10 16:00:00+00:00,17.58301139017631
2024-06-10 17:00:00+00:00,26.104969964617048
2024-06-10 18:00:00+00:00,42.605710795257885
2024-06-10 19:00:00+00:00,6.5854214805095594
2024-06-11 13:00:00+00:00,64.02427968687502
2024-06-11 14:00:00+00:00,45.22955612731024
2024-06-11 15:00:00+00:00,40.67012243681449
2024-06-11 17:00:00+00:00,74.51224440515233
2024-06-11 18:00:00+00:00,53.78674642409789
2024-06-11 19:00:00+00:00,71.15975508455253
2024-06-12 13:00:00+00:00,271.9370285854394
2024-06-12 15:00:00+00:00,218.52978138877262
2024-06-12 18:00:00+00:00,139.3987895895233
2024-06-12 19:00:00+00:00,145.01693364874387
2024-06-13 13:00:00+00:00,139.9352371562395
2024-06-13 14:00:00+00:00,125.7870489521517
2024-06-13 15:00:00+00:00,159.76661149344278
2024-06-13 17:00:00+00:00,160.1975841233056
2024-06-13 18:00:00+00:00,167.72853635869404
2024-06-13 19:00:00+00:00,184.35759885745
2024-06-14 13:00:00+00:00,94.3804434216739
2024-06-14 14:00:00+00:00,116.26161748116355
2024-06-14 15:00:00+00:00,124.46165373998709
2024-06-14 17:00:00+00:00,117.43541741618026
2024-06-14 19:00:00+00:00,131.68022926091362
2024-06-17 13:00:00+00:00,158.2899076142365
2024-06-17 14:00:00+00:00,188.1651535932824
2024-06-17 16:00:00+00:00,211.068382222257
2024-06-17 17:00:00+00:00,249.97816014178102
2024-06-17 18:00:00+00:00,266.21342032620896
2024-06-17 19:00:00+00:00,274.9366557658564
2024-06-18 15:00:00+00:00,204.7123537936819
2024-06-18 16:00:00+00:00,207.09744170939558
2024-06-18 17:00:00+00:00,227.22599973553253
2024-06-18 18:00:00+00:00,238.2789968950002
2024-06-18 19:00:00+00:00,215.17772455335788
2024-06-20 13:00:00+00:00,206.54620418797668
2024-06-20 15:00:00+00:00,239.35216304842564
2024-06-20 16:00:00+00:00,217.14949336963574
2024-06-20 17:00:00+00:00,276.66107030012853
2024-06-20 18:00:00+00:00,268.9655873263764
2024-06-21 13:00:00+00:00,267.55314894336607
2024-06-21 17:00:00+00:00,225.86420170656987
2024-06-21 19:00:00+00:00,236.24714948580367
2024-06-24 13:00:00+00:00,259.8843269594082
2024-06-24 14:00:00+00:00,258.2058136204363
2024-06-24 15:00:00+00:00,236.36587189242516
2024-06-24 19:00:00+00:00,217.16789631344764
2024-06-25 13:00:00+00:00,133.67083521186828
2024-06-25 14:00:00+00:00,101.42974152261127
2024-06-25 15:00:00+00:00,60.43796585523684
2024-06-25 16:00:00+00:00,60.31892822609573
2024-06-25 17:00:00+00:00,101.90208450776773
2024-06-25 19:00:00+00:00,103.8052688197462
2024-06-26 13:00:00+00:00,99.41614104985453
2024-06-26 14:00:00+00:00,123.63888269344707
2024-06-26 15:00:00+00:00,128.98407472620798
2024-06-26 16:00:00+00:00,124.85154663438098
2024-06-26 18:00:00+00:00,142.4536642442909
2024-06-26 19:00:00+00:00,159.43705408233313
2024-06-27 14:00:00+00:00,146.49694719623383
2024-06-27 18:00:00+00:00,163.76626247445407
2024-06-27 19:00:00+00:00,173.42510362249075
2024-06-28 13:00:00+00:00,186.79836843837916
2024-06-28 15:00:00+00:00,208.8079806267035
2024-06-28 17:00:00+00:00,204.09411045014943
2024-06-28 18:00:00+00:00,221.49813069855801
2024-06-28 19:00:00+00:00,194.31103419067546
2024-07-01 13:00:00+00:00,139.38586214774378
2024-07-01 14:00:00+00:00,155.199547694377
2024-07-01 15:00:00+00:00,166.114578130208
2024-07-01 17:00:00+00:00,159.43258899556378
2024-07-01 18:00:00+00:00,145.7059555780496
2024-07-02 13:00:00+00:00,109.06570266697727
2024-07-02 16:00:00+00:00,72.38312780343766
2024-07-02 18:00:00+00:00,90.04708516530341
2024-07-02 19:00:00+00:00,103.292149789047
2024-07-03 13:00:00+00:00,109.13518317051762
2024-07-03 14:00:00+00:00,108.16284384508378
2024-07-03 15:00:00+00:00,115.53248508111116
2024-07-05 13:00:00+00:00,147.78807730949603
2024-07-05 15:00:00+00:00,118.10529200354037
2024-07-05 16:00:00+00:00,120.52924643279584
2024-07-05 18:00:00+00:00,124.0947322667934
2024-07-05 19:00:00+00:00,128.3420758529328
2024-07-08 13:00:00+00:00,199.91539549648837
2024-07-08 14:00:00+00:00,180.5338507750451
2024-07-08 15:00:00+00:00,186.61049432802903
2024-07-08 16:00:00+00:00,203.9737822510213
2024-07-08 17:00:00+00:00,224.22209369201948
2024-07-08 18:00:00+00:00,196.74102341348697
2024-07-08 19:00:00+00:00,228.0286224348605
2024-07-09 13:00:00+00:00,199.06169323699535
2024-07-09 14:00:00+00:00,185.06017616594806
2024-07-09 16:00:00+00:00,205.87678434904433
2024-07-09 17:00:00+00:00,199.05713127695103
2024-07-09 18:00:00+00:00,203.0706799699968
2024-07-10 13:00:00+00:00,245.0075446785097
2024-07-10 14:00:00+00:00,249.7218320280688
2024-07-10 15:00:00+00:00,285.3205130773603
2024-07-10 16:00:00+00:00,290.55764019508473
2024-07-10 17:00:00+00:00,318.7450059631274
2024-07-10 18:00:00+00:00,341.20865757369654
2024-07-10 19:00:00+00:00,367.5340131308792
2024-07-11 13:00:00+00:00,540.0089502657745
2024-07-11 14:00:00+00:00,540.0089502657745
2024-07-11 15:00:00+00:00,540.0089502657745
2024-07-11 16:00:00+00:00,540.0089502657745
2024-07-11 17:00:00+00:00,540.0089502657745
2024-07-11 18:00:00+00:00,540.0089502657745
2024-07-12 13:00:00+00:00,540.0089502657745
2024-07-12 14:00:00+00:00,540.0089502657745
2024-07-12 16:00:00+00:00,540.0089502657745
2024-07-15 14:00:00+00:00,540.0089502657745
2024-07-15 15:00:00+00:00,540.0089502657745
2024-07-15 16:00:00+00:00,540.0089502657745
2024-07-15 17:00:00+00:00,540.0089502657745
2024-07-15 18:00:00+00:00,540.0089502657745
2024-07-15 19:00:00+00:00,540.0089502657745
2024-07-16 13:00:00+00:00,540.0089502657745
2024-07-16 14:00:00+00:00,540.0089502657745
2024-07-16 17:00:00+00:00,540.0089502657745
2024-07-16 18:00:00+00:00,540.0089502657745
2024-07-16 19:00:00+00:00,540.0089502657745
2024-07-17 13:00:00+00:00,540.0089502657745
2024-07-17 14:00:00+00:00,540.0089502657745
2024-07-17 16:00:00+00:00,540.0089502657745
2024-07-17 17:00:00+00:00,540.0089502657745
2024-07-17 18:00:00+00:00,540.0089502657745
2024-07-17 19:00:00+00:00,540.0089502657745
2024-07-18 13:00:00+00:00,540.0089502657745
2024-07-18 14:00:00+00:00,540.0089502657745
2024-07-18 18:00:00+00:00,540.0089502657745
2024-07-18 19:00:00+00:00,540.0089502657745
2024-07-19 13:00:00+00:00,540.0089502657745
2024-07-19 14:00:00+00:00,540.0089502657745
2024-07-19 15:00:00+00:00,540.0089502657745
2024-07-19 17:00:00+00:00,540.0089502657745
2024-07-19 19:00:00+00:00,540.0089502657745
2024-07-22 13:00:00+00:00,540.0089502657745
2024-07-22 14:00:00+00:00,540.0089502657745
2024-07-22 15:00:00+00:00,540.0089502657745
2024-07-22 18:00:00+00:00,540.0089502657745
2024-07-22 19:00:00+00:00,540.0089502657745
2024-07-23 13:00:00+00:00,540.0089502657745
2024-07-23 15:00:00+00:00,540.0089502657745
2024-07-23 18:00:00+00:00,540.0089502657745
2024-07-23 19:00:00+00:00,540.0089502657745
2024-07-24 13:00:00+00:00,540.0089502657745
2024-07-24 14:00:00+00:00,540.0089502657745
2024-07-24 15:00:00+00:00,540.0089502657745
2024-07-24 16:00:00+00:00,540.0089502657745
2024-07-24 17:00:00+00:00,540.0089502657745
2024-07-24 18:00:00+00:00,540.0089502657745
2024-07-24 19:00:00+00:00,540.0089502657745
2024-07-25 13:00:00+00:00,540.0089502657745
2024-07-25 14:00:00+00:00,540.0089502657745
2024-07-25 15:00:00+00:00,540.0089502657745
2024-07-25 16:00:00+00:00,540.0089502657745
2024-07-25 17:00:00+00:00,540.0089502657745
2024-07-25 18:00:00+00:00,540.0089502657745
2024-07-25 19:00:00+00:00,540.0089502657745
2024-07-26 13:00:00+00:00,540.0089502657745
2024-07-26 14:00:00+00:00,540.0089502657745
2024-07-26 15:00:00+00:00,540.0089502657745
2024-07-26 16:00:00+00:00,540.0089502657745
2024-07-26 17:00:00+00:00,540.0089502657745
2024-07-26 18:00:00+00:00,540.0089502657745
2024-07-26 19:00:00+00:00,540.0089502657745
2024-07-29 13:00:00+00:00,540.0089502657745
2024-07-29 14:00:00+00:00,540.0089502657745
2024-07-29 15:00:00+00:00,540.0089502657745
2024-07-29 16:00:00+00:00,540.0089502657745
2024-07-29 18:00:00+00:00,540.0089502657745
2024-07-30 13:00:00+00:00,540.0089502657745
2024-07-30 14:00:00+00:00,540.0089502657745
2024-07-30 15:00:00+00:00,540.0089502657745
2024-07-30 16:00:00+00:00,540.0089502657745
2024-07-30 17:00:00+00:00,540.0089502657745
2024-07-30 18:00:00+00:00,540.0089502657745
2024-07-30 19:00:00+00:00,540.0089502657745
2024-07-31 13:00:00+00:00,540.0089502657745
2024-07-31 14:00:00+00:00,540.0089502657745
2024-07-31 16:00:00+00:00,540.0089502657745
2024-07-31 17:00:00+00:00,540.0089502657745
2024-07-31 18:00:00+00:00,540.0089502657745
2024-07-31 19:00:00+00:00,540.0089502657745
2024-08-01 13:00:00+00:00,540.0089502657745
2024-08-01 14:00:00+00:00,540.0089502657745
2024-08-01 15:00:00+00:00,540.0089502657745
2024-08-01 16:00:00+00:00,540.0089502657745
2024-08-01 17:00:00+00:00,540.0089502657745
2024-08-01 18:00:00+00:00,540.0089502657745
2024-08-01 19:00:00+00:00,540.0089502657745
2024-08-02 13:00:00+00:00,540.0089502657745
2024-08-02 14:00:00+00:00,540.0089502657745
2024-08-02 15:00:00+00:00,540.0089502657745
2024-08-02 16:00:00+00:00,540.0089502657745
2024-08-02 17:00:00+00:00,540.0089502657745
2024-08-02 19:00:00+00:00,540.0089502657745
2024-08-05 13:00:00+00:00,540.0089502657745
2024-08-05 14:00:00+00:00,540.0089502657745
2024-08-05 15:00:00+00:00,540.0089502657745
2024-08-05 16:00:00+00:00,540.0089502657745
2024-08-05 17:00:00+00:00,540.0089502657745
2024-08-05 18:00:00+00:00,540.0089502657745
2024-08-05 19:00:00+00:00,540.0089502657745
2024-08-06 13:00:00+00:00,540.0089502657745
2024-08-06 14:00:00+00:00,540.0089502657745
2024-08-06 15:00:00+00:00,540.0089502657745
2024-08-06 16:00:00+00:00,540.0089502657745
2024-08-06 17:00:00+00:00,540.0089502657745
2024-08-06 18:00:00+00:00,540.0089502657745
2024-08-06 19:00:00+00:00,540.0089502657745
2024-08-07 13:00:00+00:00,540.0089502657745
2024-08-07 14:00:00+00:00,540.0089502657745
2024-08-07 15:00:00+00:00,540.0089502657745
2024-08-07 16:00:00+00:00,540.0089502657745
2024-08-07 17:00:00+00:00,540.0089502657745
2024-08-07 19:00:00+00:00,540.0089502657745
2024-08-08 13:00:00+00:00,540.0089502657745
2024-08-08 14:00:00+00:00,540.0089502657745
2024-08-08 15:00:00+00:00,540.0089502657745
2024-08-08 16:00:00+00:00,540.0089502657745
2024-08-08 17:00:00+00:00,540.0089502657745
2024-08-08 18:00:00+00:00,540.0089502657745
2024-08-08 19:00:00+00:00,540.0089502657745
2024-08-09 13:00:00+00:00,540.0089502657745
2024-08-09 14:00:00+00:00,540.0089502657745
2024-08-09 15:00:00+00:00,540.0089502657745
2024-08-09 16:00:00+00:00,540.0089502657745
2024-08-09 17:00:00+00:00,540.0089502657745
2024-08-09 18:00:00+00:00,540.0089502657745
2024-08-12 14:00:00+00:00,540.0089502657745
2024-08-12 16:00:00+00:00,540.0089502657745
2024-08-12 17:00:00+00:00,540.0089502657745
2024-08-12 18:00:00+00:00,540.0089502657745
2024-08-12 19:00:00+00:00,540.0089502657745
2024-08-13 13:00:00+00:00,540.0089502657745
2024-08-13 16:00:00+00:00,540.0089502657745
2024-08-13 18:00:00+00:00,540.0089502657745
2024-08-13 19:00:00+00:00,540.0089502657745
2024-08-14 13:00:00+00:00,540.0089502657745
2024-08-14 14:00:00+00:00,540.0089502657745
2024-08-14 15:00:00+00:00,540.0089502657745
2024-08-14 18:00:00+00:00,540.0089502657745
2024-08-14 19:00:00+00:00,540.0089502657745
2024-08-15 13:00:00+00:00,540.0089502657745
2024-08-15 14:00:00+00:00,540.0089502657745
2024-08-15 16:00:00+00:00,540.0089502657745
2024-08-15 17:00:00+00:00,540.0089502657745
2024-08-15 18:00:00+00:00,540.0089502657745
2024-08-16 13:00:00+00:00,540.0089502657745
2024-08-16 14:00:00+00:00,540.0089502657745
2024-08-16 15:00:00+00:00,540.0089502657745
2024-08-16 17:00:00+00:00,540.0089502657745
2024-08-16 18:00:00+00:00,540.0089502657745
2024-08-16 19:00:00+00:00,540.0089502657745
2024-08-19 13:00:00+00:00,540.0089502657745
2024-08-19 14:00:00+00:00,540.0089502657745
2024-08-19 19:00:00+00:00,540.0089502657745
2024-08-20 13:00:00+00:00,540.0089502657745
2024-08-20 15:00:00+00:00,540.0089502657745
2024-08-20 17:00:00+00:00,540.0089502657745
2024-08-20 18:00:00+00:00,540.0089502657745
2024-08-21 13:00:00+00:00,540.0089502657745
2024-08-21 14:00:00+00:00,540.0089502657745
2024-08-21 15:00:00+00:00,540.0089502657745
2024-08-21 16:00:00+00:00,540.0089502657745
2024-08-21 17:00:00+00:00,540.0089502657745
2024-08-21 19:00:00+00:00,540.0089502657745
2024-08-22 13:00:00+00:00,540.0089502657745
2024-08-22 14:00:00+00:00,540.0089502657745
2024-08-22 15:00:00+00:00,540.0089502657745
2024-08-22 17:00:00+00:00,540.0089502657745
2024-08-22 19:00:00+00:00,540.0089502657745
2024-08-23 13:00:00+00:00,540.0089502657745
2024-08-23 14:00:00+00:00,540.0089502657745
2024-08-23 15:00:00+00:00,540.0089502657745
2024-08-23 16:00:00+00:00,540.0089502657745
2024-08-23 17:00:00+00:00,540.0089502657745
2024-08-23 18:00:00+00:00,540.0089502657745
2024-08-26 13:00:00+00:00,481.38789120021164
2024-08-26 14:00:00+00:00,514.8002582891536
2024-08-26 15:00:00+00:00,507.4902687131526
2024-08-26 18:00:00+00:00,528.3607776034044
2024-08-26 19:00:00+00:00,517.7499012792972
2024-08-27 13:00:00+00:00,487.58353731842584
2024-08-27 14:00:00+00:00,506.2692826837609
2024-08-27 16:00:00+00:00,519.1390093150823
2024-08-27 19:00:00+00:00,534.4649005337282
2024-08-28 16:00:00+00:00,515.0939108056137
2024-08-28 17:00:00+00:00,533.0201006603842
2024-08-28 19:00:00+00:00,510.1416228102713
2024-08-29 13:00:00+00:00,520.6329358943183
2024-08-29 14:00:00+00:00,521.2960022970058
2024-08-29 15:00:00+00:00,509.28357537183024
2024-08-29 16:00:00+00:00,519.5489955352024
2024-08-29 17:00:00+00:00,524.6915536948825
2024-08-29 19:00:00+00:00,549.0375028231406
2024-08-30 13:00:00+00:00,433.9102297037746
2024-08-30 14:00:00+00:00,458.7196342890411
2024-08-30 16:00:00+00:00,483.9185351163834
2024-08-30 19:00:00+00:00,371.3666631088805
2024-09-03 13:00:00+00:00,399.2860648479796
2024-09-03 14:00:00+00:00,406.0104685512795
2024-09-03 16:00:00+00:00,422.7136239830184
2024-09-03 17:00:00+00:00,454.06026653935623
2024-09-03 19:00:00+00:00,469.4680651896265
2024-09-04 13:00:00+00:00,437.1063340572613
2024-09-04 14:00:00+00:00,476.70779614237034
2024-09-04 19:00:00+00:00,473.6904825118949
2024-09-05 13:00:00+00:00,475.6647728120608
2024-09-05 14:00:00+00:00,539.5790439541322
2024-09-05 15:00:00+00:00,532.6799377712307
2024-09-05 16:00:00+00:00,516.2935108699605
2024-09-05 17:00:00+00:00,489.1346703911739
2024-09-05 19:00:00+00:00,510.9916545850626
2024-09-06 13:00:00+00:00,503.74502850624623
2024-09-06 14:00:00+00:00,487.07456484478325
2024-09-06 16:00:00+00:00,481.6312657901181
2024-09-06 18:00:00+00:00,478.942808482583
2024-09-06 19:00:00+00:00,480.1446826379768
2024-09-09 13:00:00+00:00,491.7531947900859
2024-09-09 14:00:00+00:00,457.27435558893
2024-09-09 15:00:00+00:00,440.63771941952297
2024-09-09 17:00:00+00:00,453.9661852906395
2024-09-09 18:00:00+00:00,448.5037590204364
2024-09-09 19:00:00+00:00,431.67685284403046
2024-09-10 13:00:00+00:00,346.80938708466
2024-09-10 14:00:00+00:00,298.4607322639965
2024-09-10 15:00:00+00:00,313.304644898488
2024-09-10 17:00:00+00:00,270.4030129945337
2024-09-10 18:00:00+00:00,253.5722786590864
2024-09-10 19:00:00+00:00,256.3162634729415
2024-09-11 13:00:00+00:00,435.18520745592576
2024-09-11 14:00:00+00:00,461.38331100290753
2024-09-11 15:00:00+00:00,359.34601028414164
2024-09-11 16:00:00+00:00,332.38440430995183
2024-09-11 19:00:00+00:00,264.42534843033974
2024-09-12 13:00:00+00:00,266.4113028804155
2024-09-12 14:00:00+00:00,281.48532486139834
2024-09-12 15:00:00+00:00,281.3996935677321
2024-09-12 16:00:00+00:00,231.1035329814126
2024-09-12 17:00:00+00:00,220.97847874204356
2024-09-12 18:00:00+00:00,204.7410619731676
2024-09-12 19:00:00+00:00,202.02318845637907
2024-09-13 13:00:00+00:00,165.24881453011147
2024-09-13 14:00:00+00:00,176.22891060705686
2024-09-13 15:00:00+00:00,137.3590529357978
2024-09-16 13:00:00+00:00,143.4306042348296
2024-09-16 14:00:00+00:00,176.25873042462663
2024-09-16 15:00:00+00:00,137.11451178368816
2024-09-16 16:00:00+00:00,126.19777920392887
2024-09-16 17:00:00+00:00,114.81957141263607
2024-09-16 18:00:00+00:00,117.4631938158861
2024-09-16 19:00:00+00:00,118.12772621204954
2024-09-17 13:00:00+00:00,83.86911181554294
2024-09-17 14:00:00+00:00,72.61831859671807
2024-09-17 16:00:00+00:00,127.58111498402647
2024-09-17 18:00:00+00:00,149.5712912867295
2024-09-17 19:00:00+00:00,143.38908908382422
2024-09-18 13:00:00+00:00,156.6278115324501
2024-09-18 14:00:00+00:00,145.74502624062222
2024-09-18 15:00:00+00:00,144.7534773211672
2024-09-18 17:00:00+00:00,148.94999370223462
2024-09-18 18:00:00+00:00,195.22921546979305
2024-09-18 19:00:00+00:00,207.71002719317653
2024-09-19 13:00:00+00:00,151.0075521296157
2024-09-19 14:00:00+00:00,174.75861340083082
2024-09-19 15:00:00+00:00,158.58375191161443
2024-09-19 17:00:00+00:00,161.09023968913246
2024-09-19 18:00:00+00:00,148.70409173458378
2024-09-20 13:00:00+00:00,129.3179821943611
2024-09-20 18:00:00+00:00,148.37089758541543
2024-09-20 19:00:00+00:00,117.9183288321731
2024-09-23 13:00:00+00:00,134.21556490897194
2024-09-23 14:00:00+00:00,116.67881420988297
2024-09-23 15:00:00+00:00,105.34867199043912
2024-09-23 16:00:00+00:00,98.26514214351343
2024-09-23 18:00:00+00:00,53.433007920015434
2024-09-23 19:00:00+00:00,56.072802164221144
2024-09-24 13:00:00+00:00,96.01839027760631
2024-09-24 14:00:00+00:00,63.85711400629498
2024-09-24 15:00:00+00:00,59.755590898536575
2024-09-24 18:00:00+00:00,71.47569580968742
2024-09-24 19:00:00+00:00,74.64722388868131
2024-09-25 13:00:00+00:00,108.1593984574028
2024-09-25 14:00:00+00:00,97.94086159195828
2024-09-25 16:00:00+00:00,97.50714246281593
2024-09-25 18:00:00+00:00,93.74424091389328
2024-09-26 13:00:00+00:00,105.80139832640654
2024-09-26 14:00:00+00:00,86.67112159136184
2024-09-26 15:00:00+00:00,106.56398912003064
2024-09-26 16:00:00+00:00,106.2599577734657
2024-09-26 17:00:00+00:00,114.03495228965458
2024-09-26 18:00:00+00:00,143.61229048556066
2024-09-26 19:00:00+00:00,127.78587674832092
2024-09-27 13:00:00+00:00,146.352926124479
2024-09-27 14:00:00+00:00,171.22636097773477
2024-09-27 16:00:00+00:00,180.83530967223373
2024-09-27 17:00:00+00:00,181.6771161884923
2024-09-27 18:00:00+00:00,177.7025295889789
2024-09-27 19:00:00+00:00,157.1758167325972
2024-09-30 13:00:00+00:00,200.77754242288643
2024-09-30 14:00:00+00:00,220.66704600601372
2024-09-30 15:00:00+00:00,181.71526556159134
2024-09-30 16:00:00+00:00,194.83520130370928
2024-09-30 17:00:00+00:00,208.20095502333078
2024-09-30 19:00:00+00:00,147.12079541907727
2024-10-01 13:00:00+00:00,169.0956726652812
2024-10-01 14:00:00+00:00,159.07880148584334
2024-10-01 15:00:00+00:00,157.69472085616562
2024-10-01 16:00:00+00:00,172.72043635662226
2024-10-01 17:00:00+00:00,113.45872812554057
2024-10-01 19:00:00+00:00,138.43182246976403
2024-10-02 13:00:00+00:00,171.9330051251324
2024-10-02 14:00:00+00:00,159.32844265708215
2024-10-02 15:00:00+00:00,170.14841704974322
2024-10-02 16:00:00+00:00,175.28352748533325
2024-10-02 18:00:00+00:00,193.95330055672525
2024-10-02 19:00:00+00:00,194.1662421258634
2024-10-03 13:00:00+00:00,235.41511711743016
2024-10-03 19:00:00+00:00,256.9371275270185
2024-10-04 13:00:00+00:00,294.27999392352996
2024-10-04 15:00:00+00:00,343.5215107214473
2024-10-04 16:00:00+00:00,343.390043506059
2024-10-04 17:00:00+00:00,347.0679265119703
2024-10-04 18:00:00+00:00,337.61111318926686
2024-10-04 19:00:00+00:00,311.30884975572195
2024-10-07 13:00:00+00:00,398.6246883743022
2024-10-07 14:00:00+00:00,380.74520214467617
2024-10-07 16:00:00+00:00,366.8633189242804
2024-10-07 18:00:00+00:00,390.9599108510793
2024-10-08 13:00:00+00:00,279.6627670856962
2024-10-08 14:00:00+00:00,272.28373108381595
2024-10-08 15:00:00+00:00,244.98088588411247
2024-10-08 16:00:00+00:00,263.61985224851617
2024-10-08 17:00:00+00:00,256.66258688455576
2024-10-09 13:00:00+00:00,190.13283768840148
2024-10-09 14:00:00+00:00,189.81189273211592
2024-10-09 16:00:00+00:00,153.43992289273615
2024-10-10 13:00:00+00:00,198.24204228433916
2024-10-10 14:00:00+00:00,136.34345645445893
2024-10-10 15:00:00+00:00,163.7810746237287
2024-10-10 16:00:00+00:00,175.35133234475916
2024-10-11 13:00:00+00:00,159.46967507098174
2024-10-11 17:00:00+00:00,171.22265093526275
2024-10-14 13:00:00+00:00,118.542916748295
2024-10-14 14:00:00+00:00,70.50366237254633
2024-10-14 15:00:00+00:00,57.189389029972645
2024-10-14 18:00:00+00:00,12.11832157880832
2024-10-14 19:00:00+00:00,23.251315981435724
2024-10-15 13:00:00+00:00,-77.15665727314003
2024-10-15 14:00:00+00:00,-80.97656578157198
2024-10-15 16:00:00+00:00,-80.95941334575944
2024-10-15 17:00:00+00:00,-52.743471795953475
2024-10-15 18:00:00+00:00,-35.255533149894106
2024-10-16 13:00:00+00:00,-56.73468758442385
2024-10-16 14:00:00+00:00,-50.80212655275738
2024-10-16 15:00:00+00:00,-46.269561173230045
2024-10-16 17:00:00+00:00,-50.95870404778097
2024-10-16 19:00:00+00:00,-61.0549100174556
2024-10-17 14:00:00+00:00,-68.38196307381571
2024-10-17 17:00:00+00:00,-32.49844799480209
2024-10-17 19:00:00+00:00,-37.25620337536684
2024-10-18 13:00:00+00:00,-13.3640131063102
2024-10-18 14:00:00+00:00,-35.03856840738962
2024-10-18 15:00:00+00:00,-38.94564869781534
2024-10-18 16:00:00+00:00,-17.672092405329916
2024-10-18 18:00:00+00:00,-25.589726055633086
2024-10-18 19:00:00+00:00,-27.825336351749215
2024-10-21 14:00:00+00:00,37.53053438262582
2024-10-21 15:00:00+00:00,27.743368941362696
2024-10-21 16:00:00+00:00,40.422705769807436
2024-10-21 17:00:00+00:00,54.56894593683893
2024-10-21 18:00:00+00:00,57.05521431151453
2024-10-21 19:00:00+00:00,87.77499562166787
2024-10-22 13:00:00+00:00,338.626126389506
2024-10-22 14:00:00+00:00,369.5752251710594
2024-10-22 16:00:00+00:00,383.9363510038709
2024-10-22 17:00:00+00:00,426.2350792687412
2024-10-22 18:00:00+00:00,481.70306390081254
2024-10-22 19:00:00+00:00,502.095318068954
2024-10-23 13:00:00+00:00,407.62892398056107
2024-10-23 14:00:00+00:00,435.8920174565327
2024-10-23 15:00:00+00:00,446.71377161459674
2024-10-23 16:00:00+00:00,448.5783984007523
2024-10-23 17:00:00+00:00,450.43185360077285
2024-10-23 18:00:00+00:00,457.52987315551275
2024-10-23 19:00:00+00:00,462.57180027634814
2024-10-24 13:00:00+00:00,502.1534772500144
2024-10-24 14:00:00+00:00,495.35610963480383
2024-10-24 15:00:00+00:00,501.1485887122466
2024-10-24 16:00:00+00:00,505.0992920811178
2024-10-24 17:00:00+00:00,479.705534256285
2024-10-24 18:00:00+00:00,507.1581521707315
2024-10-25 13:00:00+00:00,439.23791878171
2024-10-25 15:00:00+00:00,463.54069313254405
2024-10-25 16:00:00+00:00,495.3808747732158
2024-10-25 19:00:00+00:00,549.9812858522457
2024-10-28 13:00:00+00:00,423.60167091181114
2024-10-28 14:00:00+00:00,445.99568649184135
2024-10-28 15:00:00+00:00,461.52336303503205
2024-10-28 16:00:00+00:00,474.29371514605356
2024-10-28 17:00:00+00:00,458.603808490695
2024-10-28 18:00:00+00:00,446.5554603787976
2024-10-28 19:00:00+00:00,469.1209335604873
2024-10-29 13:00:00+00:00,462.967579627275
2024-10-29 14:00:00+00:00,487.6469008156105
2024-10-29 15:00:00+00:00,473.3884697568221
2024-10-29 16:00:00+00:00,483.83466396680313
2024-10-29 17:00:00+00:00,467.974302941632
2024-10-29 18:00:00+00:00,483.7936725630967
2024-10-29 19:00:00+00:00,492.1081470685492
2024-10-30 13:00:00+00:00,437.31867700375665
2024-10-30 14:00:00+00:00,443.43928013333755
2024-10-30 15:00:00+00:00,450.09451740068454
2024-10-30 16:00:00+00:00,444.7779453403901
2024-10-30 17:00:00+00:00,447.27327687331456
2024-10-30 18:00:00+00:00,455.9466514548087
2024-10-30 19:00:00+00:00,469.3066126118992
2024-10-31 13:00:00+00:00,511.9777152186125
2024-10-31 15:00:00+00:00,500.08592926019435
2024-10-31 18:00:00+00:00,514.8705905263239
2024-10-31 19:00:00+00:00,515.2811746081023
2024-11-01 13:00:00+00:00,424.4183676009819
2024-11-01 15:00:00+00:00,499.0999575821003
2024-11-01 17:00:00+00:00,528.1055737713632
2024-11-01 18:00:00+00:00,517.8463294719934
2024-11-01 19:00:00+00:00,538.8545726115079
2024-11-04 14:00:00+00:00,219.52630652039687
2024-11-04 16:00:00+00:00,265.6497590104566
2024-11-04 18:00:00+00:00,236.62903877902076
2024-11-04 19:00:00+00:00,209.54691232016143
2024-11-04 20:00:00+00:00,183.52330181523877
2024-11-05 14:00:00+00:00,83.68050101708519
2024-11-05 15:00:00+00:00,132.7746831510139
2024-11-05 16:00:00+00:00,102.97537091080285
2024-11-05 18:00:00+00:00,116.68174443496103
2024-11-05 19:00:00+00:00,118.93953357210563
2024-11-05 20:00:00+00:00,98.94744017868891
2024-11-06 14:00:00+00:00,128.34401966952922
2024-11-06 15:00:00+00:00,112.48187887895659
2024-11-06 16:00:00+00:00,98.9624552654071
2024-11-06 17:00:00+00:00,46.02923640661754
2024-11-06 19:00:00+00:00,41.43644811084996
2024-11-06 20:00:00+00:00,58.9543709057193
2024-11-07 14:00:00+00:00,-70.1473050561108
2024-11-07 15:00:00+00:00,-60.042691822309216
2024-11-07 17:00:00+00:00,-87.25407582964287
2024-11-07 18:00:00+00:00,-50.296385137483405
2024-11-07 19:00:00+00:00,-91.93650325090313
2024-11-08 14:00:00+00:00,-117.71615604215688
2024-11-08 15:00:00+00:00,-96.2635901269241
2024-11-08 16:00:00+00:00,-84.86105080396808
2024-11-08 17:00:00+00:00,-75.82611278771748
2024-11-08 18:00:00+00:00,-83.2856804356722
2024-11-08 19:00:00+00:00,-101.3617323321755
2024-11-08 20:00:00+00:00,-77.70063929992062
2024-11-11 14:00:00+00:00,-115.21476828376929
2024-11-11 15:00:00+00:00,-135.64840212239164
2024-11-11 18:00:00+00:00,-148.8409288511875
2024-11-11 19:00:00+00:00,-137.87732831504073
2024-11-11 20:00:00+00:00,-127.34892736211695
2024-11-12 14:00:00+00:00,-115.3836532440443
2024-11-12 15:00:00+00:00,-120.30170898078528
2024-11-12 16:00:00+00:00,-93.24065399144831
2024-11-12 17:00:00+00:00,-73.40817371026188
2024-11-12 18:00:00+00:00,-107.97733977234451
2024-11-12 19:00:00+00:00,-99.72062083963587
2024-11-12 20:00:00+00:00,-69.47755376326603
2024-11-13 14:00:00+00:00,-161.84040418026797
2024-11-13 15:00:00+00:00,-150.4831923253724
2024-11-13 17:00:00+00:00,-131.2778572601511
2024-11-13 18:00:00+00:00,-125.16630194728017
2024-11-13 19:00:00+00:00,-144.7892805515931
2024-11-13 20:00:00+00:00,-119.50603815011031
2024-11-14 15:00:00+00:00,-157.80474175428452
2024-11-14 16:00:00+00:00,-119.76674541487408
2024-11-14 17:00:00+00:00,-123.42635376185254
2024-11-14 18:00:00+00:00,-140.3984265700697
2024-11-14 19:00:00+00:00,-133.2939308391167
2024-11-14 20:00:00+00:00,-148.14608307279232
2024-11-15 14:00:00+00:00,-64.48496294320375
2024-11-15 15:00:00+00:00,-76.55547455458841
2024-11-15 16:00:00+00:00,-38.550423466874705
2024-11-15 17:00:00+00:00,-39.44351057527694
2024-11-15 18:00:00+00:00,17.80931694708459
2024-11-15 19:00:00+00:00,24.018183045073833
2024-11-15 20:00:00+00:00,46.91566847218715
2024-11-18 14:00:00+00:00,15.340187428553879
2024-11-18 15:00:00+00:00,19.262252122615752
2024-11-18 17:00:00+00:00,126.2727324761236
2024-11-18 18:00:00+00:00,159.6354639529697
2024-11-18 19:00:00+00:00,140.90409180825336
2024-11-18 20:00:00+00:00,139.79581991747278
2024-11-19 14:00:00+00:00,253.12825443370505
2024-11-19 15:00:00+00:00,231.98514899763396
2024-11-19 16:00:00+00:00,193.28644961671603
2024-11-19 17:00:00+00:00,186.70652396624007
2024-11-19 18:00:00+00:00,135.9681043393841
2024-11-19 19:00:00+00:00,151.41201994136742
2024-11-19 20:00:00+00:00,143.7595045599797
2024-11-20 14:00:00+00:00,196.8110901745272
2024-11-20 15:00:00+00:00,224.92243754636914
2024-11-20 16:00:00+00:00,231.37064048034253
2024-11-20 17:00:00+00:00,235.3502074604484
2024-11-20 18:00:00+00:00,238.00127758778683
2024-11-20 19:00:00+00:00,211.799361223306
2024-11-20 20:00:00+00:00,188.9354348173477
2024-11-21 14:00:00+00:00,171.71813327892391
2024-11-21 15:00:00+00:00,66.17708364174585
2024-11-21 16:00:00+00:00,29.811485014841693
2024-11-21 17:00:00+00:00,-20.86615843101505
2024-11-21 18:00:00+00:00,-30.644664322345612
2024-11-21 19:00:00+00:00,-34.68965853481867
2024-11-21 20:00:00+00:00,-46.836857920159346
2024-11-22 14:00:00+00:00,-104.86340293485031
2024-11-22 15:00:00+00:00,-133.02742120184482
2024-11-22 16:00:00+00:00,-129.67072297764187
2024-11-22 18:00:00+00:00,-146.46819760325394
2024-11-22 19:00:00+00:00,-138.849735438399
2024-11-25 14:00:00+00:00,-288.43094366481546
2024-11-25 15:00:00+00:00,-343.3208183855117
2024-11-25 16:00:00+00:00,-309.94899439925314
2024-11-25 17:00:00+00:00,-338.40208941132545
2024-11-25 18:00:00+00:00,-372.50044847538936
2024-11-25 19:00:00+00:00,-358.6323974370786
2024-11-25 20:00:00+00:00,-351.1108424490236
2024-11-26 14:00:00+00:00,-329.8333832074434
2024-11-26 15:00:00+00:00,-333.55708730293367
2024-11-26 16:00:00+00:00,-336.7363323815248
2024-11-26 17:00:00+00:00,-360.9012228461282
2024-11-26 18:00:00+00:00,-334.1296328686435
2024-11-26 19:00:00+00:00,-328.03336127072873
2024-11-26 20:00:00+00:00,-318.82080513035527
2024-11-27 14:00:00+00:00,-369.83551448199285
2024-11-27 15:00:00+00:00,-305.5478514240169
2024-11-27 16:00:00+00:00,-320.1417346204944
2024-11-27 17:00:00+00:00,-295.4226775461104
2024-11-27 18:00:00+00:00,-288.20177449758444
2024-11-27 19:00:00+00:00,-292.028607483251
2024-11-27 20:00:00+00:00,-269.6723520086544
2024-11-29 14:00:00+00:00,-296.44477986794516
2024-11-29 15:00:00+00:00,-321.9679863361456
2024-11-29 16:00:00+00:00,-359.00070467539666
2024-12-02 14:00:00+00:00,-266.84571215083355
2024-12-02 15:00:00+00:00,-274.85005394056753
2024-12-02 17:00:00+00:00,-255.0131463772519
2024-12-02 18:00:00+00:00,-251.11441048345142
2024-12-02 19:00:00+00:00,-273.94284911315106
2024-12-02 20:00:00+00:00,-268.92484991566255
2024-12-03 14:00:00+00:00,-226.4451086597025
2024-12-03 15:00:00+00:00,-173.76262315945473
2024-12-03 16:00:00+00:00,-211.4989058603917
2024-12-03 17:00:00+00:00,-221.24850476402966
2024-12-03 18:00:00+00:00,-237.42862928736994
2024-12-03 19:00:00+00:00,-242.75619326101645
2024-12-03 20:00:00+00:00,-253.5496233971315
2024-12-04 14:00:00+00:00,-177.2443882511634
2024-12-04 15:00:00+00:00,-206.44639093496642
2024-12-04 16:00:00+00:00,-185.97261810242054
2024-12-04 17:00:00+00:00,-176.69313893406053
2024-12-04 18:00:00+00:00,-161.42127942611071
2024-12-04 19:00:00+00:00,-180.3207740776637
2024-12-05 14:00:00+00:00,-125.3629729120423
2024-12-05 15:00:00+00:00,-71.84301695989144
2024-12-05 16:00:00+00:00,-54.38323800454063
2024-12-05 17:00:00+00:00,-66.79379228080741
2024-12-05 18:00:00+00:00,-71.05872630934428
2024-12-05 19:00:00+00:00,-55.93783637197397
2024-12-05 20:00:00+00:00,-45.19305395764684
2024-12-06 14:00:00+00:00,-106.65437646912298
2024-12-06 15:00:00+00:00,-115.71793781864257
2024-12-06 16:00:00+00:00,-109.01403748796625
2024-12-06 17:00:00+00:00,-109.41089318421066
2024-12-06 18:00:00+00:00,-78.52574168138935
2024-12-06 20:00:00+00:00,-38.56946096597484
2024-12-09 14:00:00+00:00,81.38810779123952
2024-12-09 15:00:00+00:00,147.72030343020793
2024-12-09 16:00:00+00:00,156.8694960733955
2024-12-09 17:00:00+00:00,172.84314017762657
2024-12-09 19:00:00+00:00,170.0522120315982
2024-12-09 20:00:00+00:00,169.85163853289626
2024-12-10 14:00:00+00:00,220.71080254257038
2024-12-10 15:00:00+00:00,169.72030508405976
2024-12-10 16:00:00+00:00,172.93499259893727
2024-12-10 18:00:00+00:00,199.6448792061013
2024-12-10 19:00:00+00:00,260.7590854299784
2024-12-11 14:00:00+00:00,230.05793700971952
2024-12-11 15:00:00+00:00,218.85677940299053
2024-12-11 16:00:00+00:00,210.86920178229315
2024-12-11 17:00:00+00:00,191.94962320842046
2024-12-11 18:00:00+00:00,201.07156867542338
2024-12-11 19:00:00+00:00,193.0808357989803
2024-12-11 20:00:00+00:00,202.4924252838772
2024-12-12 14:00:00+00:00,297.95078774203193
2024-12-12 15:00:00+00:00,273.02625266458637
2024-12-12 16:00:00+00:00,301.39410464976663
2024-12-12 18:00:00+00:00,334.2904252271934
2024-12-12 19:00:00+00:00,318.8072996185119
2024-12-12 20:00:00+00:00,336.6275344797743
2024-12-13 16:00:00+00:00,408.49432842576346
2024-12-13 17:00:00+00:00,407.99957816285536
2024-12-13 19:00:00+00:00,387.1574086360932
2024-12-13 20:00:00+00:00,391.5628587544753
2024-12-16 14:00:00+00:00,347.9254949663064
2024-12-16 15:00:00+00:00,354.32829505643303
2024-12-16 16:00:00+00:00,335.2685302313401
2024-12-16 17:00:00+00:00,314.0734414782124
2024-12-16 18:00:00+00:00,320.2237601283665
2024-12-16 19:00:00+00:00,326.2183085001333
2024-12-16 20:00:00+00:00,355.4890428280424
2024-12-17 14:00:00+00:00,367.7870321111788
2024-12-17 15:00:00+00:00,371.00886803882537
2024-12-17 16:00:00+00:00,375.9673318981704
2024-12-17 17:00:00+00:00,379.16876963112725
2024-12-17 20:00:00+00:00,392.3382511489507
2024-12-18 14:00:00+00:00,405.61932481593453
2024-12-18 15:00:00+00:00,409.24458193251365
2024-12-18 16:00:00+00:00,422.868689579893
2024-12-18 18:00:00+00:00,529.638277267549
2024-12-18 19:00:00+00:00,529.638277267549
2024-12-18 20:00:00+00:00,529.638277267549
2024-12-19 14:00:00+00:00,529.638277267549
2024-12-19 15:00:00+00:00,529.638277267549
2024-12-19 16:00:00+00:00,529.638277267549
2024-12-19 17:00:00+00:00,529.638277267549
2024-12-19 18:00:00+00:00,529.638277267549
2024-12-19 19:00:00+00:00,529.638277267549
2024-12-19 20:00:00+00:00,529.638277267549
2024-12-20 14:00:00+00:00,529.638277267549
2024-12-20 15:00:00+00:00,529.638277267549
2024-12-20 16:00:00+00:00,529.638277267549
2024-12-20 17:00:00+00:00,529.638277267549
2024-12-20 18:00:00+00:00,529.638277267549
2024-12-20 19:00:00+00:00,529.638277267549
2024-12-20 20:00:00+00:00,529.638277267549
2024-12-23 14:00:00+00:00,529.638277267549
2024-12-23 15:00:00+00:00,529.638277267549
2024-12-23 16:00:00+00:00,529.638277267549
2024-12-23 17:00:00+00:00,529.638277267549
2024-12-23 18:00:00+00:00,529.638277267549
2024-12-23 19:00:00+00:00,529.638277267549
2024-12-23 20:00:00+00:00,529.638277267549
2024-12-24 14:00:00+00:00,529.638277267549
2024-12-24 15:00:00+00:00,529.638277267549
2024-12-24 16:00:00+00:00,529.638277267549
2024-12-26 14:00:00+00:00,529.638277267549
2024-12-26 15:00:00+00:00,529.638277267549
2024-12-26 16:00:00+00:00,529.638277267549
2024-12-26 17:00:00+00:00,529.638277267549
2024-12-26 18:00:00+00:00,529.638277267549
2024-12-26 19:00:00+00:00,529.638277267549
2024-12-26 20:00:00+00:00,529.638277267549
2024-12-27 14:00:00+00:00,529.638277267549
2024-12-27 15:00:00+00:00,529.638277267549
2024-12-27 16:00:00+00:00,529.638277267549
2024-12-27 17:00:00+00:00,529.638277267549
2024-12-27 18:00:00+00:00,529.638277267549
2024-12-27 19:00:00+00:00,529.638277267549
2024-12-27 20:00:00+00:00,529.638277267549
2024-12-30 14:00:00+00:00,529.638277267549
2024-12-30 15:00:00+00:00,529.638277267549
2024-12-30 16:00:00+00:00,529.638277267549
2024-12-30 17:00:00+00:00,529.638277267549
2024-12-30 18:00:00+00:00,529.638277267549
2024-12-30 19:00:00+00:00,529.638277267549
2024-12-30 20:00:00+00:00,529.638277267549
2024-12-31 14:00:00+00:00,529.638277267549
2024-12-31 15:00:00+00:00,529.638277267549
2024-12-31 16:00:00+00:00,529.638277267549
2024-12-31 17:00:00+00:00,529.638277267549
2024-12-31 18:00:00+00:00,529.638277267549
2024-12-31 19:00:00+00:00,529.638277267549
2025-01-02 14:00:00+00:00,529.638277267549
2025-01-02 15:00:00+00:00,529.638277267549
2025-01-02 16:00:00+00:00,529.638277267549
2025-01-02 17:00:00+00:00,529.638277267549
2025-01-02 18:00:00+00:00,529.638277267549
2025-01-02 19:00:00+00:00,529.638277267549
2025-01-02 20:00:00+00:00,529.638277267549
2025-01-03 14:00:00+00:00,529.638277267549
2025-01-03 15:00:00+00:00,529.638277267549
2025-01-03 16:00:00+00:00,529.638277267549
2025-01-03 17:00:00+00:00,529.638277267549
2025-01-03 18:00:00+00:00,529.638277267549
2025-01-03 19:00:00+00:00,529.638277267549
2025-01-03 20:00:00+00:00,529.638277267549
2025-01-06 14:00:00+00:00,529.638277267549
2025-01-06 15:00:00+00:00,529.638277267549
2025-01-06 18:00:00+00:00,529.638277267549
2025-01-06 19:00:00+00:00,529.638277267549
2025-01-06 20:00:00+00:00,529.638277267549
2025-01-07 14:00:00+00:00,529.638277267549
2025-01-07 15:00:00+00:00,529.638277267549
2025-01-07 16:00:00+00:00,529.638277267549
2025-01-07 17:00:00+00:00,529.638277267549
2025-01-07 18:00:00+00:00,529.638277267549
2025-01-07 19:00:00+00:00,529.638277267549
2025-01-07 20:00:00+00:00,529.638277267549
2025-01-08 14:00:00+00:00,529.638277267549
2025-01-08 15:00:00+00:00,529.638277267549
2025-01-08 16:00:00+00:00,529.638277267549
2025-01-08 17:00:00+00:00,529.638277267549
2025-01-08 18:00:00+00:00,529.638277267549
2025-01-08 19:00:00+00:00,529.638277267549
2025-01-08 20:00:00+00:00,529.638277267549
2025-01-10 14:00:00+00:00,529.638277267549
2025-01-10 15:00:00+00:00,529.638277267549
2025-01-10 16:00:00+00:00,529.638277267549
2025-01-10 17:00:00+00:00,529.638277267549
2025-01-10 19:00:00+00:00,529.638277267549
2025-01-10 20:00:00+00:00,529.638277267549
2025-01-13 14:00:00+00:00,529.638277267549
2025-01-13 15:00:00+00:00,529.638277267549
2025-01-13 16:00:00+00:00,529.638277267549
2025-01-13 17:00:00+00:00,529.638277267549
2025-01-13 18:00:00+00:00,529.638277267549
2025-01-13 19:00:00+00:00,529.638277267549
2025-01-13 20:00:00+00:00,529.638277267549
2025-01-14 14:00:00+00:00,529.638277267549
2025-01-14 15:00:00+00:00,529.638277267549
2025-01-14 16:00:00+00:00,529.638277267549
2025-01-14 17:00:00+00:00,529.638277267549
2025-01-14 18:00:00+00:00,529.638277267549
2025-01-14 19:00:00+00:00,529.638277267549
2025-01-14 20:00:00+00:00,529.638277267549
2025-01-15 14:00:00+00:00,529.638277267549
2025-01-15 15:00:00+00:00,529.638277267549
2025-01-15 16:00:00+00:00,529.638277267549
2025-01-15 18:00:00+00:00,529.638277267549
2025-01-15 19:00:00+00:00,529.638277267549
2025-01-15 20:00:00+00:00,529.638277267549
2025-01-16 14:00:00+00:00,529.638277267549
2025-01-16 15:00:00+00:00,529.638277267549
2025-01-16 16:00:00+00:00,529.638277267549
2025-01-16 17:00:00+00:00,529.638277267549
2025-01-16 19:00:00+00:00,529.638277267549
2025-01-16 20:00:00+00:00,529.638277267549
2025-01-17 14:00:00+00:00,529.638277267549
2025-01-17 15:00:00+00:00,529.638277267549
2025-01-17 16:00:00+00:00,529.638277267549
2025-01-17 18:00:00+00:00,529.638277267549
2025-01-17 19:00:00+00:00,529.638277267549
2025-01-17 20:00:00+00:00,529.638277267549
2025-01-21 14:00:00+00:00,529.638277267549
2025-01-21 15:00:00+00:00,529.638277267549
2025-01-21 16:00:00+00:00,529.638277267549
2025-01-21 17:00:00+00:00,529.638277267549
2025-01-21 19:00:00+00:00,529.638277267549
2025-01-21 20:00:00+00:00,529.638277267549
2025-01-22 14:00:00+00:00,529.638277267549
2025-01-22 16:00:00+00:00,529.638277267549
2025-01-22 17:00:00+00:00,529.638277267549
2025-01-22 19:00:00+00:00,529.638277267549
2025-01-22 20:00:00+00:00,529.638277267549
2025-01-23 14:00:00+00:00,529.638277267549
2025-01-23 15:00:00+00:00,529.638277267549
2025-01-23 16:00:00+00:00,529.638277267549
2025-01-23 17:00:00+00:00,529.638277267549
2025-01-23 18:00:00+00:00,529.638277267549
2025-01-23 19:00:00+00:00,529.638277267549
2025-01-23 20:00:00+00:00,529.638277267549
2025-01-24 14:00:00+00:00,529.638277267549
2025-01-24 15:00:00+00:00,529.638277267549
2025-01-24 16:00:00+00:00,529.638277267549
2025-01-24 17:00:00+00:00,529.638277267549
2025-01-24 18:00:00+00:00,529.638277267549
2025-01-24 19:00:00+00:00,529.638277267549
2025-01-24 20:00:00+00:00,529.638277267549
2025-01-27 14:00:00+00:00,529.638277267549
2025-01-27 15:00:00+00:00,529.638277267549
2025-01-27 16:00:00+00:00,529.638277267549
2025-01-27 17:00:00+00:00,529.638277267549
2025-01-27 18:00:00+00:00,529.638277267549
2025-01-27 19:00:00+00:00,529.638277267549
2025-01-27 20:00:00+00:00,529.638277267549
2025-01-28 14:00:00+00:00,529.638277267549
2025-01-28 15:00:00+00:00,529.638277267549
2025-01-28 16:00:00+00:00,529.638277267549
2025-01-28 17:00:00+00:00,529.638277267549
2025-01-28 18:00:00+00:00,529.638277267549
2025-01-28 19:00:00+00:00,529.638277267549
2025-01-29 14:00:00+00:00,529.638277267549
2025-01-29 15:00:00+00:00,529.638277267549
2025-01-29 16:00:00+00:00,529.638277267549
2025-01-29 17:00:00+00:00,529.638277267549
2025-01-29 18:00:00+00:00,529.638277267549
2025-01-29 19:00:00+00:00,529.638277267549
2025-01-29 20:00:00+00:00,529.638277267549
2025-01-30 14:00:00+00:00,529.638277267549
2025-01-30 15:00:00+00:00,529.638277267549
2025-01-30 16:00:00+00:00,529.638277267549
2025-01-30 18:00:00+00:00,529.638277267549
2025-01-30 19:00:00+00:00,529.638277267549
2025-01-30 20:00:00+00:00,529.638277267549
2025-01-31 14:00:00+00:00,529.638277267549
2025-01-31 15:00:00+00:00,529.638277267549
2025-01-31 16:00:00+00:00,529.638277267549
2025-01-31 17:00:00+00:00,529.638277267549
2025-01-31 18:00:00+00:00,529.638277267549
2025-01-31 19:00:00+00:00,529.638277267549
2025-01-31 20:00:00+00:00,529.638277267549
2025-02-03 14:00:00+00:00,529.638277267549
2025-02-03 15:00:00+00:00,529.638277267549
2025-02-03 16:00:00+00:00,529.638277267549
2025-02-03 17:00:00+00:00,529.638277267549
2025-02-03 18:00:00+00:00,529.638277267549
2025-02-03 19:00:00+00:00,529.638277267549
2025-02-03 20:00:00+00:00,529.638277267549
2025-02-04 16:00:00+00:00,529.638277267549
2025-02-04 18:00:00+00:00,529.638277267549
2025-02-04 20:00:00+00:00,529.638277267549
2025-02-05 14:00:00+00:00,529.638277267549
2025-02-05 15:00:00+00:00,529.638277267549
2025-02-05 16:00:00+00:00,529.638277267549
2025-02-05 17:00:00+00:00,529.638277267549
2025-02-05 19:00:00+00:00,529.638277267549
2025-02-05 20:00:00+00:00,529.638277267549
2025-02-06 14:00:00+00:00,529.638277267549
2025-02-06 15:00:00+00:00,529.638277267549
2025-02-06 17:00:00+00:00,529.638277267549
2025-02-06 18:00:00+00:00,529.638277267549
2025-02-06 19:00:00+00:00,529.638277267549
2025-02-06 20:00:00+00:00,529.638277267549
2025-02-07 14:00:00+00:00,529.638277267549
2025-02-07 15:00:00+00:00,529.638277267549
2025-02-07 16:00:00+00:00,529.638277267549
2025-02-07 17:00:00+00:00,529.638277267549
2025-02-07 19:00:00+00:00,529.638277267549
2025-02-07 20:00:00+00:00,529.638277267549
2025-02-10 14:00:00+00:00,529.638277267549
2025-02-10 15:00:00+00:00,529.638277267549
2025-02-10 19:00:00+00:00,529.638277267549
2025-02-10 20:00:00+00:00,529.638277267549
2025-02-11 14:00:00+00:00,529.638277267549
2025-02-11 16:00:00+00:00,529.638277267549
2025-02-11 17:00:00+00:00,529.638277267549
2025-02-11 19:00:00+00:00,529.638277267549
2025-02-11 20:00:00+00:00,529.638277267549
2025-02-12 14:00:00+00:00,529.638277267549
2025-02-12 15:00:00+00:00,529.638277267549
2025-02-12 16:00:00+00:00,529.638277267549
2025-02-12 17:00:00+00:00,529.638277267549
2025-02-12 18:00:00+00:00,529.638277267549
2025-02-12 19:00:00+00:00,529.638277267549
2025-02-12 20:00:00+00:00,529.638277267549
2025-02-13 14:00:00+00:00,529.638277267549
2025-02-13 15:00:00+00:00,529.638277267549
2025-02-13 16:00:00+00:00,529.638277267549
2025-02-13 17:00:00+00:00,529.638277267549
2025-02-13 18:00:00+00:00,529.638277267549
2025-02-13 19:00:00+00:00,529.638277267549
2025-02-13 20:00:00+00:00,529.638277267549
2025-02-14 14:00:00+00:00,529.638277267549
2025-02-14 15:00:00+00:00,529.638277267549
2025-02-14 16:00:00+00:00,529.638277267549
2025-02-14 17:00:00+00:00,529.638277267549
2025-02-14 18:00:00+00:00,529.638277267549
2025-02-14 19:00:00+00:00,529.638277267549
2025-02-14 20:00:00+00:00,529.638277267549
2025-02-18 14:00:00+00:00,529.638277267549
2025-02-18 15:00:00+00:00,529.638277267549
2025-02-18 16:00:00+00:00,529.638277267549
2025-02-18 17:00:00+00:00,529.638277267549
2025-02-18 18:00:00+00:00,529.638277267549
2025-02-18 19:00:00+00:00,529.638277267549
2025-02-18 20:00:00+00:00,529.638277267549
2025-02-19 14:00:00+00:00,529.638277267549
2025-02-19 15:00:00+00:00,529.638277267549
2025-02-19 16:00:00+00:00,529.638277267549
2025-02-19 17:00:00+00:00,529.638277267549
2025-02-19 18:00:00+00:00,529.638277267549
2025-02-19 19:00:00+00:00,529.638277267549
2025-02-19 20:00:00+00:00,529.638277267549
2025-02-20 14:00:00+00:00,529.638277267549
2025-02-20 15:00:00+00:00,529.638277267549
2025-02-20 16:00:00+00:00,529.638277267549
2025-02-20 17:00:00+00:00,529.638277267549
2025-02-20 18:00:00+00:00,529.638277267549
2025-02-20 19:00:00+00:00,529.638277267549
2025-02-21 14:00:00+00:00,529.638277267549
2025-02-21 15:00:00+00:00,529.638277267549
2025-02-21 16:00:00+00:00,529.638277267549
2025-02-21 17:00:00+00:00,529.638277267549
2025-02-21 18:00:00+00:00,529.638277267549
2025-02-21 19:00:00+00:00,529.638277267549
2025-02-21 20:00:00+00:00,529.638277267549
2025-02-24 14:00:00+00:00,529.638277267549
2025-02-24 15:00:00+00:00,529.638277267549
2025-02-24 16:00:00+00:00,529.638277267549
2025-02-24 17:00:00+00:00,529.638277267549
2025-02-24 18:00:00+00:00,529.638277267549
2025-02-24 19:00:00+00:00,529.638277267549
2025-02-24 20:00:00+00:00,529.638277267549
2025-02-25 14:00:00+00:00,529.638277267549
2025-02-25 15:00:00+00:00,529.638277267549
2025-02-25 16:00:00+00:00,529.638277267549
2025-02-25 17:00:00+00:00,529.638277267549
2025-02-25 18:00:00+00:00,529.638277267549
2025-02-25 19:00:00+00:00,529.638277267549
2025-02-25 20:00:00+00:00,529.638277267549
2025-02-26 14:00:00+00:00,529.638277267549
2025-02-26 15:00:00+00:00,529.638277267549
2025-02-26 16:00:00+00:00,529.638277267549
2025-02-26 17:00:00+00:00,529.638277267549
2025-02-26 18:00:00+00:00,529.638277267549
2025-02-26 19:00:00+00:00,529.638277267549
2025-02-26 20:00:00+00:00,529.638277267549
2025-02-27 14:00:00+00:00,529.638277267549
2025-02-27 15:00:00+00:00,529.638277267549
2025-02-27 16:00:00+00:00,529.638277267549
2025-02-27 17:00:00+00:00,529.638277267549
2025-02-27 18:00:00+00:00,529.638277267549
2025-02-27 19:00:00+00:00,529.638277267549
2025-02-27 20:00:00+00:00,529.638277267549
2025-02-28 14:00:00+00:00,529.638277267549
2025-02-28 15:00:00+00:00,529.638277267549
2025-02-28 16:00:00+00:00,529.638277267549
2025-02-28 17:00:00+00:00,529.638277267549
2025-02-28 18:00:00+00:00,529.638277267549
2025-02-28 19:00:00+00:00,529.638277267549
2025-02-28 20:00:00+00:00,529.638277267549
2025-03-03 14:00:00+00:00,529.638277267549
2025-03-03 15:00:00+00:00,529.638277267549
2025-03-03 16:00:00+00:00,529.638277267549
2025-03-03 17:00:00+00:00,529.638277267549
2025-03-03 18:00:00+00:00,529.638277267549
2025-03-03 19:00:00+00:00,529.638277267549
2025-03-03 20:00:00+00:00,529.638277267549
2025-03-04 14:00:00+00:00,529.638277267549
2025-03-04 15:00:00+00:00,529.638277267549
2025-03-04 16:00:00+00:00,529.638277267549
2025-03-04 17:00:00+00:00,529.638277267549
2025-03-04 18:00:00+00:00,529.638277267549
2025-03-04 19:00:00+00:00,529.638277267549
2025-03-04 20:00:00+00:00,529.638277267549
2025-03-05 14:00:00+00:00,529.638277267549
2025-03-05 15:00:00+00:00,529.638277267549
2025-03-05 16:00:00+00:00,529.638277267549
2025-03-05 17:00:00+00:00,529.638277267549
2025-03-05 18:00:00+00:00,529.638277267549
2025-03-05 19:00:00+00:00,529.638277267549
2025-03-05 20:00:00+00:00,529.638277267549
2025-03-06 14:00:00+00:00,529.638277267549
2025-03-06 15:00:00+00:00,529.638277267549
2025-03-06 16:00:00+00:00,529.638277267549
2025-03-06 17:00:00+00:00,529.638277267549
2025-03-06 18:00:00+00:00,529.638277267549
2025-03-06 19:00:00+00:00,529.638277267549
2025-03-06 20:00:00+00:00,529.638277267549
2025-03-07 14:00:00+00:00,529.638277267549
2025-03-07 15:00:00+00:00,529.638277267549
2025-03-07 17:00:00+00:00,529.638277267549
2025-03-07 18:00:00+00:00,529.638277267549
2025-03-07 19:00:00+00:00,529.638277267549
2025-03-07 20:00:00+00:00,529.638277267549
2025-03-10 13:00:00+00:00,529.638277267549
2025-03-10 14:00:00+00:00,529.638277267549
2025-03-10 15:00:00+00:00,529.638277267549
2025-03-10 16:00:00+00:00,529.638277267549
2025-03-10 17:00:00+00:00,529.638277267549
2025-03-10 18:00:00+00:00,529.638277267549
2025-03-10 19:00:00+00:00,529.638277267549
2025-03-11 13:00:00+00:00,529.638277267549
2025-03-11 14:00:00+00:00,529.638277267549
2025-03-11 15:00:00+00:00,529.638277267549
2025-03-11 16:00:00+00:00,529.638277267549
2025-03-11 17:00:00+00:00,529.638277267549
2025-03-11 18:00:00+00:00,529.638277267549
2025-03-11 19:00:00+00:00,529.638277267549
2025-03-12 13:00:00+00:00,529.638277267549
2025-03-12 14:00:00+00:00,529.638277267549
2025-03-12 15:00:00+00:00,529.638277267549
2025-03-12 16:00:00+00:00,529.638277267549
2025-03-12 17:00:00+00:00,529.638277267549
2025-03-12 18:00:00+00:00,529.638277267549
2025-03-12 19:00:00+00:00,529.638277267549
2025-03-13 13:00:00+00:00,529.638277267549
2025-03-13 14:00:00+00:00,529.638277267549
2025-03-13 15:00:00+00:00,529.638277267549
2025-03-13 17:00:00+00:00,529.638277267549
2025-03-13 18:00:00+00:00,529.638277267549
2025-03-13 19:00:00+00:00,529.638277267549
2025-03-14 13:00:00+00:00,529.638277267549
2025-03-14 14:00:00+00:00,529.638277267549
2025-03-14 15:00:00+00:00,529.638277267549
2025-03-14 16:00:00+00:00,529.638277267549
2025-03-14 17:00:00+00:00,529.638277267549
2025-03-14 18:00:00+00:00,529.638277267549
2025-03-14 19:00:00+00:00,529.638277267549
2025-03-17 13:00:00+00:00,529.638277267549
2025-03-17 14:00:00+00:00,529.638277267549
2025-03-17 15:00:00+00:00,529.638277267549
2025-03-17 16:00:00+00:00,529.638277267549
2025-03-17 17:00:00+00:00,529.638277267549
2025-03-17 18:00:00+00:00,529.638277267549
2025-03-17 19:00:00+00:00,529.638277267549
2025-03-18 13:00:00+00:00,529.638277267549
2025-03-18 14:00:00+00:00,529.638277267549
2025-03-18 15:00:00+00:00,529.638277267549
2025-03-18 16:00:00+00:00,529.638277267549
2025-03-18 17:00:00+00:00,529.638277267549
2025-03-18 18:00:00+00:00,529.638277267549
2025-03-18 19:00:00+00:00,529.638277267549
2025-03-19 13:00:00+00:00,529.638277267549
2025-03-19 14:00:00+00:00,529.638277267549
2025-03-19 15:00:00+00:00,529.638277267549
2025-03-19 16:00:00+00:00,529.638277267549
2025-03-19 17:00:00+00:00,529.638277267549
2025-03-19 18:00:00+00:00,529.638277267549
2025-03-19 19:00:00+00:00,529.638277267549
2025-03-20 13:00:00+00:00,529.638277267549
2025-03-20 14:00:00+00:00,529.638277267549
2025-03-20 15:00:00+00:00,529.638277267549
2025-03-20 16:00:00+00:00,529.638277267549
2025-03-20 17:00:00+00:00,529.638277267549
2025-03-20 18:00:00+00:00,529.638277267549
2025-03-20 19:00:00+00:00,529.638277267549
2025-03-21 13:00:00+00:00,529.638277267549
2025-03-21 14:00:00+00:00,529.638277267549
2025-03-21 15:00:00+00:00,529.638277267549
2025-03-21 16:00:00+00:00,529.638277267549
2025-03-21 17:00:00+00:00,529.638277267549
2025-03-21 18:00:00+00:00,529.638277267549
2025-03-21 19:00:00+00:00,529.638277267549
2025-03-24 13:00:00+00:00,529.638277267549
2025-03-24 14:00:00+00:00,529.638277267549
2025-03-24 15:00:00+00:00,529.638277267549
2025-03-24 16:00:00+00:00,529.638277267549
2025-03-24 17:00:00+00:00,529.638277267549
2025-03-24 18:00:00+00:00,529.638277267549
2025-03-24 19:00:00+00:00,529.638277267549
2025-03-25 13:00:00+00:00,529.638277267549
2025-03-25 14:00:00+00:00,529.638277267549
2025-03-25 15:00:00+00:00,529.638277267549
2025-03-25 16:00:00+00:00,529.638277267549
2025-03-25 17:00:00+00:00,529.638277267549
2025-03-25 18:00:00+00:00,529.638277267549
2025-03-25 19:00:00+00:00,529.638277267549
2025-03-26 13:00:00+00:00,529.638277267549
2025-03-26 14:00:00+00:00,529.638277267549
2025-03-26 15:00:00+00:00,529.638277267549
2025-03-26 16:00:00+00:00,529.638277267549
2025-03-26 17:00:00+00:00,529.638277267549
2025-03-26 18:00:00+00:00,529.638277267549
2025-03-26 19:00:00+00:00,529.638277267549
2025-03-27 13:00:00+00:00,529.638277267549
2025-03-27 14:00:00+00:00,529.638277267549
2025-03-27 15:00:00+00:00,529.638277267549
2025-03-27 16:00:00+00:00,529.638277267549
2025-03-27 17:00:00+00:00,529.638277267549
2025-03-27 18:00:00+00:00,529.638277267549
2025-03-27 19:00:00+00:00,529.638277267549
2025-03-28 13:00:00+00:00,529.638277267549
2025-03-28 14:00:00+00:00,529.638277267549
2025-03-28 15:00:00+00:00,529.638277267549
2025-03-28 16:00:00+00:00,529.638277267549
2025-03-28 17:00:00+00:00,529.638277267549
2025-03-28 18:00:00+00:00,529.638277267549
2025-03-28 19:00:00+00:00,529.638277267549
2025-03-31 13:00:00+00:00,529.638277267549
2025-03-31 14:00:00+00:00,529.638277267549
2025-03-31 15:00:00+00:00,529.638277267549
2025-03-31 16:00:00+00:00,529.638277267549
2025-03-31 17:00:00+00:00,529.638277267549
2025-03-31 18:00:00+00:00,529.638277267549
2025-03-31 19:00:00+00:00,529.638277267549
2025-04-01 13:00:00+00:00,529.638277267549
2025-04-01 14:00:00+00:00,529.638277267549
2025-04-01 15:00:00+00:00,529.638277267549
2025-04-01 16:00:00+00:00,529.638277267549
2025-04-01 17:00:00+00:00,529.638277267549
2025-04-01 18:00:00+00:00,529.638277267549
2025-04-01 19:00:00+00:00,529.638277267549
2025-04-02 13:00:00+00:00,529.638277267549
2025-04-02 14:00:00+00:00,529.638277267549
2025-04-02 16:00:00+00:00,529.638277267549
2025-04-02 17:00:00+00:00,529.638277267549
2025-04-02 18:00:00+00:00,529.638277267549
2025-04-02 19:00:00+00:00,529.638277267549
2025-04-03 13:00:00+00:00,529.638277267549
2025-04-03 14:00:00+00:00,529.638277267549
2025-04-03 15:00:00+00:00,529.638277267549
2025-04-03 16:00:00+00:00,529.638277267549
2025-04-03 17:00:00+00:00,529.638277267549
2025-04-03 18:00:00+00:00,529.638277267549
2025-04-03 19:00:00+00:00,529.638277267549
2025-04-04 13:00:00+00:00,529.638277267549
2025-04-04 14:00:00+00:00,529.638277267549
2025-04-04 15:00:00+00:00,415.74554799220425
2025-04-04 16:00:00+00:00,399.7203579307637
2025-04-04 17:00:00+00:00,382.3794257912603
2025-04-04 18:00:00+00:00,399.99366282353446
2025-04-04 19:00:00+00:00,357.08925681010544
2025-04-07 13:00:00+00:00,168.7979514405822
2025-04-07 14:00:00+00:00,84.44485330037111
2025-04-07 15:00:00+00:00,156.63869338537492
2025-04-07 16:00:00+00:00,250.21466044474977
2025-04-07 17:00:00+00:00,224.27066630459714
2025-04-07 18:00:00+00:00,158.73550251144476
2025-04-07 19:00:00+00:00,177.4202593171669
2025-04-08 13:00:00+00:00,280.4732908109061
2025-04-08 14:00:00+00:00,222.58377526491296
2025-04-08 15:00:00+00:00,290.51858439848047
2025-04-08 16:00:00+00:00,142.95762838127803
2025-04-08 17:00:00+00:00,96.2665255039619
2025-04-08 18:00:00+00:00,110.49912055910406
2025-04-08 19:00:00+00:00,63.66268800097846
2025-04-09 13:00:00+00:00,68.78038361400188
2025-04-09 14:00:00+00:00,67.19496965716749
2025-04-09 15:00:00+00:00,60.79600417324831
2025-04-09 16:00:00+00:00,320.34595704685944
2025-04-09 17:00:00+00:00,411.9291501870145
2025-04-09 18:00:00+00:00,335.4589686548855
2025-04-09 19:00:00+00:00,357.75358971783965
2025-04-10 13:00:00+00:00,189.50306375333918
2025-04-10 14:00:00+00:00,218.74808969100235
2025-04-10 15:00:00+00:00,139.42573701747727
2025-04-10 16:00:00+00:00,199.60926859448992
2025-04-10 17:00:00+00:00,330.95222383636633
2025-04-10 18:00:00+00:00,272.5757255777742
2025-04-10 19:00:00+00:00,310.9977775448143
2025-04-11 13:00:00+00:00,227.8395652696874
2025-04-11 14:00:00+00:00,274.29157604311575
2025-04-11 15:00:00+00:00,318.1176567305656
2025-04-11 16:00:00+00:00,357.4715740932665
2025-04-11 17:00:00+00:00,408.33789943517144
2025-04-11 18:00:00+00:00,425.1526686642804
2025-04-11 19:00:00+00:00,437.5567988040554
2025-04-14 13:00:00+00:00,476.0337348798059
2025-04-14 14:00:00+00:00,447.7897436430483
2025-04-14 15:00:00+00:00,457.96730439861534
2025-04-14 16:00:00+00:00,464.1042074088812
2025-04-14 17:00:00+00:00,517.3035805586521
2025-04-14 18:00:00+00:00,532.0074127699094
2025-04-14 19:00:00+00:00,526.291322254268
2025-04-15 13:00:00+00:00,539.2992850091417
2025-04-15 14:00:00+00:00,536.2601182496478
2025-04-15 15:00:00+00:00,534.4917617907171
2025-04-15 16:00:00+00:00,498.6845569914167
2025-04-15 17:00:00+00:00,453.37865544520963
2025-04-15 18:00:00+00:00,478.9811441318652
2025-04-15 19:00:00+00:00,461.68066875045605
2025-04-16 13:00:00+00:00,415.887796131223
2025-04-16 14:00:00+00:00,448.1717604932547
2025-04-16 15:00:00+00:00,421.4003631958523
2025-04-16 17:00:00+00:00,385.96670633822623
2025-04-16 18:00:00+00:00,331.971763444168
2025-04-16 19:00:00+00:00,350.8448465878836
2025-04-17 13:00:00+00:00,325.93356325684624
2025-04-17 14:00:00+00:00,358.94540589613194
2025-04-17 15:00:00+00:00,385.4618031450461
2025-04-17 16:00:00+00:00,348.7646181490221
2025-04-17 17:00:00+00:00,380.75382233037817
2025-04-17 18:00:00+00:00,356.8214143557717
2025-04-17 19:00:00+00:00,369.13308508216755
2025-04-21 13:00:00+00:00,260.83279024283854
2025-04-21 14:00:00+00:00,230.42449501600112
2025-04-21 15:00:00+00:00,194.0479496052457
2025-04-21 16:00:00+00:00,90.59196460054109
2025-04-21 17:00:00+00:00,69.77111972771742
2025-04-21 18:00:00+00:00,89.70960419808479
2025-04-21 19:00:00+00:00,117.6510947009759
2025-04-22 13:00:00+00:00,227.9183046074348
2025-04-22 14:00:00+00:00,254.04838464532708
2025-04-22 15:00:00+00:00,287.7237309458107
2025-04-22 16:00:00+00:00,238.42681493018864
2025-04-22 17:00:00+00:00,277.71893922149314
2025-04-22 18:00:00+00:00,277.3835031498706
2025-04-22 19:00:00+00:00,298.9231747467506
2025-04-23 13:00:00+00:00,345.25108265064364
2025-04-23 14:00:00+00:00,364.9550544739453
2025-04-23 15:00:00+00:00,296.9871645304538
2025-04-23 16:00:00+00:00,303.148340920183
2025-04-23 17:00:00+00:00,271.87308666339356
2025-04-23 18:00:00+00:00,277.9120700206366
2025-04-23 19:00:00+00:00,282.1413122998771
2025-04-24 13:00:00+00:00,281.80275811821423
2025-04-24 14:00:00+00:00,288.386833980344
2025-04-24 16:00:00+00:00,319.32943324926254
2025-04-24 17:00:00+00:00,293.95531628594824
2025-04-24 18:00:00+00:00,280.7741862171269
2025-04-24 19:00:00+00:00,306.2849438457461
2025-04-25 13:00:00+00:00,248.25511215530702
2025-04-25 14:00:00+00:00,286.1811209309129
2025-04-25 15:00:00+00:00,290.31158725071236
2025-04-25 16:00:00+00:00,275.4239476709429
2025-04-25 17:00:00+00:00,252.17556421183374
2025-04-25 18:00:00+00:00,259.1449817654557
2025-04-25 19:00:00+00:00,271.5900771973728
2025-04-28 13:00:00+00:00,330.78787702655154
2025-04-28 14:00:00+00:00,272.4723819870934
2025-04-28 15:00:00+00:00,252.0420838935777
2025-04-28 16:00:00+00:00,229.31824681216196
2025-04-28 17:00:00+00:00,259.57205519340647
2025-04-28 18:00:00+00:00,283.73377648265364
2025-04-28 19:00:00+00:00,282.87635389349
2025-04-29 13:00:00+00:00,523.9991841258093
2025-04-29 14:00:00+00:00,660.4325926641434
2025-04-29 15:00:00+00:00,687.2407051201895
2025-04-29 16:00:00+00:00,691.09145905789
2025-04-29 17:00:00+00:00,705.1896363642209
2025-04-29 19:00:00+00:00,642.7375119213802
2025-04-30 13:00:00+00:00,565.0033196065569
2025-04-30 14:00:00+00:00,606.0074654215806
2025-04-30 15:00:00+00:00,612.2211114520769
2025-04-30 16:00:00+00:00,639.9236077008237
2025-04-30 17:00:00+00:00,643.9434106096558
2025-04-30 18:00:00+00:00,641.6123138408485
2025-05-01 13:00:00+00:00,710.1498894097267
2025-05-01 14:00:00+00:00,710.1498894097267
2025-05-01 15:00:00+00:00,710.1498894097267
2025-05-01 16:00:00+00:00,710.1498894097267
2025-05-01 17:00:00+00:00,710.1498894097267
2025-05-01 18:00:00+00:00,710.1498894097267
2025-05-01 19:00:00+00:00,710.1498894097267
2025-05-02 13:00:00+00:00,710.1498894097267
2025-05-02 14:00:00+00:00,710.1498894097267
2025-05-02 15:00:00+00:00,710.1498894097267
2025-05-02 16:00:00+00:00,710.1498894097267
2025-05-02 17:00:00+00:00,710.1498894097267
2025-05-02 18:00:00+00:00,710.1498894097267
2025-05-02 19:00:00+00:00,710.1498894097267
2025-05-05 13:00:00+00:00,710.1498894097267
2025-05-05 14:00:00+00:00,710.1498894097267
2025-05-05 15:00:00+00:00,710.1498894097267
2025-05-05 16:00:00+00:00,710.1498894097267
2025-05-05 17:00:00+00:00,710.1498894097267
2025-05-05 18:00:00+00:00,710.1498894097267
2025-05-05 19:00:00+00:00,710.1498894097267
2025-05-06 13:00:00+00:00,710.1498894097267
2025-05-06 14:00:00+00:00,710.1498894097267
2025-05-06 15:00:00+00:00,710.1498894097267
2025-05-06 16:00:00+00:00,710.1498894097267
2025-05-06 17:00:00+00:00,710.1498894097267
2025-05-06 18:00:00+00:00,710.1498894097267
2025-05-06 19:00:00+00:00,710.1498894097267
2025-05-07 13:00:00+00:00,710.1498894097267
2025-05-07 15:00:00+00:00,710.1498894097267
2025-05-07 17:00:00+00:00,710.1498894097267
2025-05-07 18:00:00+00:00,710.1498894097267
2025-05-07 19:00:00+00:00,710.1498894097267
2025-05-08 13:00:00+00:00,710.1498894097267
2025-05-08 14:00:00+00:00,710.1498894097267
2025-05-08 15:00:00+00:00,710.1498894097267
2025-05-08 16:00:00+00:00,710.1498894097267
2025-05-08 17:00:00+00:00,710.1498894097267
2025-05-08 18:00:00+00:00,710.1498894097267
2025-05-08 19:00:00+00:00,710.1498894097267
2025-05-09 13:00:00+00:00,710.1498894097267
2025-05-09 14:00:00+00:00,710.1498894097267
2025-05-09 15:00:00+00:00,710.1498894097267
2025-05-09 16:00:00+00:00,710.1498894097267
2025-05-09 17:00:00+00:00,710.1498894097267
2025-05-09 18:00:00+00:00,710.1498894097267
2025-05-09 19:00:00+00:00,710.1498894097267
2025-05-12 13:00:00+00:00,710.1498894097267
2025-05-12 14:00:00+00:00,710.1498894097267
2025-05-12 15:00:00+00:00,710.1498894097267
2025-05-12 16:00:00+00:00,710.1498894097267
2025-05-12 17:00:00+00:00,710.1498894097267
2025-05-12 18:00:00+00:00,710.1498894097267
2025-05-12 19:00:00+00:00,710.1498894097267
2025-05-13 13:00:00+00:00,710.1498894097267
2025-05-13 14:00:00+00:00,710.1498894097267
2025-05-13 15:00:00+00:00,710.1498894097267
2025-05-13 17:00:00+00:00,710.1498894097267
2025-05-13 18:00:00+00:00,710.1498894097267
2025-05-13 19:00:00+00:00,710.1498894097267
2025-05-14 13:00:00+00:00,710.1498894097267
2025-05-14 14:00:00+00:00,710.1498894097267
2025-05-14 15:00:00+00:00,710.1498894097267
2025-05-14 16:00:00+00:00,710.1498894097267
2025-05-14 17:00:00+00:00,710.1498894097267
2025-05-14 18:00:00+00:00,710.1498894097267
2025-05-14 19:00:00+00:00,710.1498894097267
2025-05-15 13:00:00+00:00,710.1498894097267
2025-05-15 14:00:00+00:00,710.1498894097267
2025-05-15 15:00:00+00:00,710.1498894097267
2025-05-15 16:00:00+00:00,710.1498894097267
2025-05-15 17:00:00+00:00,710.1498894097267
2025-05-15 18:00:00+00:00,710.1498894097267
2025-05-15 19:00:00+00:00,710.1498894097267
2025-05-16 13:00:00+00:00,710.1498894097267
2025-05-16 14:00:00+00:00,710.1498894097267
2025-05-16 15:00:00+00:00,710.1498894097267
2025-05-16 16:00:00+00:00,710.1498894097267
2025-05-16 17:00:00+00:00,710.1498894097267
2025-05-16 18:00:00+00:00,710.1498894097267
2025-05-16 19:00:00+00:00,710.1498894097267
2025-05-19 13:00:00+00:00,710.1498894097267
2025-05-19 14:00:00+00:00,710.1498894097267
2025-05-19 15:00:00+00:00,710.1498894097267
2025-05-19 16:00:00+00:00,710.1498894097267
2025-05-19 17:00:00+00:00,710.1498894097267
2025-05-19 18:00:00+00:00,710.1498894097267
2025-05-19 19:00:00+00:00,710.1498894097267
2025-05-20 13:00:00+00:00,710.1498894097267
2025-05-20 14:00:00+00:00,710.1498894097267
2025-05-20 15:00:00+00:00,710.1498894097267
2025-05-20 16:00:00+00:00,710.1498894097267
2025-05-20 17:00:00+00:00,710.1498894097267
2025-05-20 18:00:00+00:00,710.1498894097267
2025-05-20 19:00:00+00:00,710.1498894097267
2025-05-21 13:00:00+00:00,710.1498894097267
2025-05-21 14:00:00+00:00,710.1498894097267
2025-05-21 15:00:00+00:00,710.1498894097267
2025-05-21 16:00:00+00:00,710.1498894097267
2025-05-21 17:00:00+00:00,710.1498894097267
2025-05-21 18:00:00+00:00,710.1498894097267
2025-05-21 19:00:00+00:00,710.1498894097267
2025-05-22 13:00:00+00:00,710.1498894097267
2025-05-22 14:00:00+00:00,710.1498894097267
2025-05-22 16:00:00+00:00,710.1498894097267
2025-05-22 17:00:00+00:00,710.1498894097267
2025-05-22 18:00:00+00:00,710.1498894097267
2025-05-22 19:00:00+00:00,710.1498894097267
2025-05-23 13:00:00+00:00,710.1498894097267
2025-05-23 14:00:00+00:00,710.1498894097267
2025-05-23 15:00:00+00:00,710.1498894097267
2025-05-23 16:00:00+00:00,710.1498894097267
2025-05-23 17:00:00+00:00,710.1498894097267
2025-05-23 18:00:00+00:00,710.1498894097267
2025-05-23 19:00:00+00:00,710.1498894097267
2025-05-27 13:00:00+00:00,710.1498894097267
2025-05-27 14:00:00+00:00,710.1498894097267
2025-05-27 15:00:00+00:00,710.1498894097267
2025-05-27 16:00:00+00:00,710.1498894097267
2025-05-27 17:00:00+00:00,710.1498894097267
2025-05-27 18:00:00+00:00,710.1498894097267
2025-05-27 19:00:00+00:00,710.1498894097267
2025-05-28 13:00:00+00:00,710.1498894097267
2025-05-28 14:00:00+00:00,710.1498894097267
2025-05-28 15:00:00+00:00,710.1498894097267
2025-05-28 16:00:00+00:00,710.1498894097267
2025-05-28 17:00:00+00:00,710.1498894097267
2025-05-28 18:00:00+00:00,710.1498894097267
2025-05-28 19:00:00+00:00,710.1498894097267
2025-05-29 13:00:00+00:00,710.1498894097267
2025-05-29 14:00:00+00:00,710.1498894097267
2025-05-29 15:00:00+00:00,710.1498894097267
2025-05-29 16:00:00+00:00,710.1498894097267
2025-05-29 17:00:00+00:00,710.1498894097267
2025-05-29 18:00:00+00:00,710.1498894097267
2025-05-29 19:00:00+00:00,710.1498894097267
2025-05-30 13:00:00+00:00,710.1498894097267
2025-05-30 14:00:00+00:00,710.1498894097267
2025-05-30 15:00:00+00:00,710.1498894097267
2025-05-30 16:00:00+00:00,710.1498894097267
2025-05-30 17:00:00+00:00,710.1498894097267
2025-05-30 18:00:00+00:00,710.1498894097267
2025-05-30 19:00:00+00:00,710.1498894097267
2025-06-02 13:00:00+00:00,710.1498894097267
2025-06-02 14:00:00+00:00,710.1498894097267
2025-06-02 15:00:00+00:00,710.1498894097267
2025-06-02 16:00:00+00:00,710.1498894097267
2025-06-02 17:00:00+00:00,710.1498894097267
2025-06-02 18:00:00+00:00,710.1498894097267
2025-06-02 19:00:00+00:00,710.1498894097267
2025-06-03 13:00:00+00:00,710.1498894097267
2025-06-03 14:00:00+00:00,710.1498894097267
2025-06-03 15:00:00+00:00,710.1498894097267
2025-06-03 16:00:00+00:00,710.1498894097267
2025-06-03 17:00:00+00:00,710.1498894097267
2025-06-03 18:00:00+00:00,710.1498894097267
2025-06-03 19:00:00+00:00,710.1498894097267
2025-06-04 13:00:00+00:00,710.1498894097267
2025-06-04 14:00:00+00:00,710.1498894097267
2025-06-04 15:00:00+00:00,710.1498894097267
2025-06-04 16:00:00+00:00,710.1498894097267
2025-06-04 17:00:00+00:00,710.1498894097267
2025-06-04 18:00:00+00:00,710.1498894097267
2025-06-04 19:00:00+00:00,710.1498894097267
2025-06-05 13:00:00+00:00,710.1498894097267
2025-06-05 14:00:00+00:00,710.1498894097267
2025-06-05 15:00:00+00:00,710.1498894097267
2025-06-05 16:00:00+00:00,710.1498894097267
2025-06-05 17:00:00+00:00,710.1498894097267
2025-06-05 18:00:00+00:00,710.1498894097267
2025-06-05 19:00:00+00:00,710.1498894097267
2025-06-06 13:00:00+00:00,710.1498894097267
2025-06-06 14:00:00+00:00,710.1498894097267
2025-06-06 15:00:00+00:00,710.1498894097267
2025-06-06 16:00:00+00:00,710.1498894097267
2025-06-06 17:00:00+00:00,710.1498894097267
2025-06-06 18:00:00+00:00,710.1498894097267
2025-06-06 19:00:00+00:00,710.1498894097267
2025-06-09 13:00:00+00:00,710.1498894097267
2025-06-09 14:00:00+00:00,710.1498894097267
2025-06-09 15:00:00+00:00,710.1498894097267
2025-06-09 16:00:00+00:00,710.1498894097267
2025-06-09 17:00:00+00:00,710.1498894097267
2025-06-09 18:00:00+00:00,710.1498894097267
2025-06-09 19:00:00+00:00,710.1498894097267
2025-06-10 13:00:00+00:00,710.1498894097267
2025-06-10 14:00:00+00:00,710.1498894097267
2025-06-10 15:00:00+00:00,710.1498894097267
2025-06-10 16:00:00+00:00,710.1498894097267
2025-06-10 17:00:00+00:00,710.1498894097267
2025-06-10 18:00:00+00:00,710.1498894097267
2025-06-10 19:00:00+00:00,710.1498894097267
2025-06-11 13:00:00+00:00,710.1498894097267
2025-06-11 14:00:00+00:00,710.1498894097267
2025-06-11 15:00:00+00:00,710.1498894097267
2025-06-11 16:00:00+00:00,710.1498894097267
2025-06-11 18:00:00+00:00,710.1498894097267
2025-06-11 19:00:00+00:00,710.1498894097267
2025-06-12 13:00:00+00:00,710.1498894097267
2025-06-12 14:00:00+00:00,710.1498894097267
2025-06-12 15:00:00+00:00,710.1498894097267
2025-06-12 17:00:00+00:00,710.1498894097267
2025-06-12 18:00:00+00:00,710.1498894097267
2025-06-12 19:00:00+00:00,710.1498894097267
2025-06-13 13:00:00+00:00,710.1498894097267
2025-06-13 14:00:00+00:00,710.1498894097267
2025-06-13 15:00:00+00:00,710.1498894097267
2025-06-13 16:00:00+00:00,710.1498894097267
2025-06-13 17:00:00+00:00,710.1498894097267
2025-06-13 18:00:00+00:00,710.1498894097267
2025-06-13 19:00:00+00:00,710.1498894097267
2025-06-16 13:00:00+00:00,710.1498894097267
2025-06-16 14:00:00+00:00,710.1498894097267
2025-06-16 15:00:00+00:00,710.1498894097267
2025-06-16 16:00:00+00:00,710.1498894097267
2025-06-16 17:00:00+00:00,710.1498894097267
2025-06-16 18:00:00+00:00,710.1498894097267
2025-06-16 19:00:00+00:00,710.1498894097267
2025-06-17 13:00:00+00:00,710.1498894097267
2025-06-17 14:00:00+00:00,710.1498894097267
2025-06-17 15:00:00+00:00,710.1498894097267
2025-06-17 16:00:00+00:00,710.1498894097267
2025-06-17 17:00:00+00:00,710.1498894097267
2025-06-17 18:00:00+00:00,710.1498894097267
2025-06-17 19:00:00+00:00,710.1498894097267
2025-06-18 13:00:00+00:00,710.1498894097267
2025-06-18 15:00:00+00:00,710.1498894097267
2025-06-18 17:00:00+00:00,710.1498894097267
2025-06-18 18:00:00+00:00,710.1498894097267
2025-06-18 19:00:00+00:00,710.1498894097267
2025-06-20 13:00:00+00:00,710.1498894097267
2025-06-20 14:00:00+00:00,710.1498894097267
2025-06-20 15:00:00+00:00,710.1498894097267
2025-06-20 16:00:00+00:00,710.1498894097267
2025-06-20 18:00:00+00:00,710.1498894097267
2025-06-20 19:00:00+00:00,710.1498894097267
2025-06-23 13:00:00+00:00,710.1498894097267
2025-06-23 14:00:00+00:00,710.1498894097267
2025-06-23 16:00:00+00:00,710.1498894097267
2025-06-23 17:00:00+00:00,710.1498894097267
2025-06-23 19:00:00+00:00,710.1498894097267
2025-06-24 13:00:00+00:00,710.1498894097267
2025-06-24 14:00:00+00:00,710.1498894097267
2025-06-25 13:00:00+00:00,710.1498894097267
2025-06-25 14:00:00+00:00,710.1498894097267
2025-06-25 15:00:00+00:00,710.1498894097267
2025-06-25 16:00:00+00:00,710.1498894097267
2025-06-25 17:00:00+00:00,710.1498894097267
2025-06-25 19:00:00+00:00,710.1498894097267
2025-06-26 13:00:00+00:00,710.1498894097267
2025-06-26 14:00:00+00:00,710.1498894097267
2025-06-26 19:00:00+00:00,710.1498894097267
2025-06-27 13:00:00+00:00,710.1498894097267
2025-06-27 14:00:00+00:00,710.1498894097267
2025-06-27 15:00:00+00:00,710.1498894097267
2025-06-27 16:00:00+00:00,710.1498894097267
2025-06-27 17:00:00+00:00,710.1498894097267
2025-06-27 18:00:00+00:00,710.1498894097267
2025-06-27 19:00:00+00:00,710.1498894097267
2025-06-30 13:00:00+00:00,710.1498894097267
2025-06-30 14:00:00+00:00,710.1498894097267
2025-06-30 15:00:00+00:00,710.1498894097267
2025-06-30 16:00:00+00:00,710.1498894097267
2025-06-30 17:00:00+00:00,710.1498894097267
2025-06-30 19:00:00+00:00,710.1498894097267
2025-07-01 13:00:00+00:00,710.1498894097267
2025-07-01 14:00:00+00:00,710.1498894097267
2025-07-01 15:00:00+00:00,710.1498894097267
2025-07-01 16:00:00+00:00,710.1498894097267
2025-07-01 17:00:00+00:00,710.1498894097267
2025-07-01 18:00:00+00:00,710.1498894097267
2025-07-01 19:00:00+00:00,710.1498894097267
2025-07-02 13:00:00+00:00,710.1498894097267
2025-07-02 14:00:00+00:00,710.1498894097267
2025-07-02 15:00:00+00:00,710.1498894097267
2025-07-02 16:00:00+00:00,710.1498894097267
2025-07-02 17:00:00+00:00,710.1498894097267
2025-07-02 18:00:00+00:00,710.1498894097267
2025-07-02 19:00:00+00:00,710.1498894097267
2025-07-03 13:00:00+00:00,710.1498894097267
2025-07-03 14:00:00+00:00,710.1498894097267
2025-07-03 15:00:00+00:00,710.1498894097267
2025-07-07 13:00:00+00:00,710.1498894097267
2025-07-07 14:00:00+00:00,710.1498894097267
2025-07-07 15:00:00+00:00,710.1498894097267
2025-07-07 16:00:00+00:00,710.1498894097267
2025-07-07 17:00:00+00:00,710.1498894097267
2025-07-07 18:00:00+00:00,710.1498894097267
2025-07-07 19:00:00+00:00,710.1498894097267
2025-07-08 13:00:00+00:00,710.1498894097267
2025-07-08 14:00:00+00:00,710.1498894097267
2025-07-08 15:00:00+00:00,710.1498894097267
2025-07-08 16:00:00+00:00,710.1498894097267
2025-07-08 17:00:00+00:00,710.1498894097267
2025-07-08 18:00:00+00:00,710.1498894097267
2025-07-08 19:00:00+00:00,710.1498894097267
2025-07-09 13:00:00+00:00,710.1498894097267
2025-07-09 14:00:00+00:00,710.1498894097267
2025-07-09 15:00:00+00:00,710.1498894097267
2025-07-09 16:00:00+00:00,710.1498894097267
2025-07-09 17:00:00+00:00,710.1498894097267
2025-07-09 18:00:00+00:00,710.1498894097267
2025-07-09 19:00:00+00:00,710.1498894097267
2025-07-10 13:00:00+00:00,710.1498894097267
2025-07-10 14:00:00+00:00,710.1498894097267
2025-07-10 15:00:00+00:00,710.1498894097267
2025-07-10 16:00:00+00:00,710.1498894097267
2025-07-10 17:00:00+00:00,710.1498894097267
2025-07-10 18:00:00+00:00,710.1498894097267
2025-07-10 19:00:00+00:00,710.1498894097267
2025-07-11 13:00:00+00:00,710.1498894097267
2025-07-11 14:00:00+00:00,710.1498894097267
2025-07-11 15:00:00+00:00,710.1498894097267
2025-07-11 16:00:00+00:00,710.1498894097267
2025-07-11 17:00:00+00:00,710.1498894097267
2025-07-11 18:00:00+00:00,710.1498894097267
2025-07-11 19:00:00+00:00,710.1498894097267
2025-07-14 13:00:00+00:00,710.1498894097267
2025-07-14 14:00:00+00:00,710.1498894097267
2025-07-14 15:00:00+00:00,710.1498894097267
2025-07-14 16:00:00+00:00,710.1498894097267
2025-07-14 17:00:00+00:00,710.1498894097267
2025-07-14 19:00:00+00:00,710.1498894097267
2025-07-15 13:00:00+00:00,710.1498894097267
2025-07-15 14:00:00+00:00,710.1498894097267
2025-07-15 15:00:00+00:00,710.1498894097267
2025-07-15 16:00:00+00:00,710.1498894097267
2025-07-15 17:00:00+00:00,710.1498894097267
2025-07-15 19:00:00+00:00,710.1498894097267
2025-07-16 13:00:00+00:00,710.1498894097267
2025-07-16 14:00:00+00:00,710.1498894097267
2025-07-16 15:00:00+00:00,710.1498894097267
2025-07-16 16:00:00+00:00,710.1498894097267
2025-07-16 17:00:00+00:00,710.1498894097267
2025-07-16 19:00:00+00:00,710.1498894097267
2025-07-17 13:00:00+00:00,710.1498894097267
2025-07-17 15:00:00+00:00,710.1498894097267
2025-07-17 16:00:00+00:00,710.1498894097267
2025-07-17 17:00:00+00:00,710.1498894097267
2025-07-18 13:00:00+00:00,710.1498894097267
2025-07-18 17:00:00+00:00,710.1498894097267
2025-07-18 19:00:00+00:00,710.1498894097267
2025-07-21 13:00:00+00:00,710.1498894097267
2025-07-21 14:00:00+00:00,710.1498894097267
2025-07-21 16:00:00+00:00,710.1498894097267
2025-07-21 19:00:00+00:00,710.1498894097267
2025-07-22 13:00:00+00:00,710.1498894097267
2025-07-22 14:00:00+00:00,710.1498894097267
2025-07-22 15:00:00+00:00,710.1498894097267
2025-07-22 18:00:00+00:00,710.1498894097267
2025-07-22 19:00:00+00:00,710.1498894097267
2025-07-23 13:00:00+00:00,710.1498894097267
2025-07-23 14:00:00+00:00,710.1498894097267
2025-07-23 15:00:00+00:00,710.1498894097267
2025-07-23 16:00:00+00:00,710.1498894097267
2025-07-23 17:00:00+00:00,710.1498894097267
2025-07-23 18:00:00+00:00,710.1498894097267
2025-07-23 19:00:00+00:00,710.1498894097267
2025-07-24 13:00:00+00:00,710.1498894097267
2025-07-24 14:00:00+00:00,710.1498894097267
2025-07-24 15:00:00+00:00,710.1498894097267
2025-07-24 16:00:00+00:00,710.1498894097267
2025-07-24 19:00:00+00:00,710.1498894097267
2025-07-25 13:00:00+00:00,710.1498894097267
2025-07-25 14:00:00+00:00,710.1498894097267
2025-07-25 15:00:00+00:00,710.1498894097267
2025-07-25 16:00:00+00:00,710.1498894097267
2025-07-25 17:00:00+00:00,710.1498894097267
2025-07-25 18:00:00+00:00,710.1498894097267
2025-07-28 13:00:00+00:00,710.1498894097267
2025-07-28 14:00:00+00:00,710.1498894097267
2025-07-28 15:00:00+00:00,710.1498894097267
2025-07-28 16:00:00+00:00,710.1498894097267
2025-07-28 17:00:00+00:00,710.1498894097267
2025-07-28 18:00:00+00:00,710.1498894097267
2025-07-28 19:00:00+00:00,710.1498894097267
2025-07-29 13:00:00+00:00,710.1498894097267
2025-07-29 14:00:00+00:00,710.1498894097267
2025-07-29 15:00:00+00:00,710.1498894097267
2025-07-29 16:00:00+00:00,710.1498894097267
2025-07-29 17:00:00+00:00,710.1498894097267
2025-07-29 18:00:00+00:00,710.1498894097267
2025-07-29 19:00:00+00:00,710.1498894097267
2025-07-30 13:00:00+00:00,710.1498894097267
2025-07-30 14:00:00+00:00,710.1498894097267
2025-07-30 15:00:00+00:00,710.1498894097267
2025-07-30 16:00:00+00:00,710.1498894097267
2025-07-30 17:00:00+00:00,710.1498894097267
2025-07-30 18:00:00+00:00,710.1498894097267
2025-07-30 19:00:00+00:00,710.1498894097267
2025-07-31 13:00:00+00:00,710.1498894097267
2025-07-31 16:00:00+00:00,710.1498894097267
2025-07-31 17:00:00+00:00,710.1498894097267
2025-07-31 18:00:00+00:00,710.1498894097267
2025-07-31 19:00:00+00:00,710.1498894097267
2025-08-01 13:00:00+00:00,710.1498894097267
2025-08-01 14:00:00+00:00,710.1498894097267
2025-08-01 15:00:00+00:00,710.1498894097267
2025-08-01 16:00:00+00:00,710.1498894097267
2025-08-01 17:00:00+00:00,710.1498894097267
2025-08-04 13:00:00+00:00,710.1498894097267
2025-08-04 14:00:00+00:00,710.1498894097267
2025-08-04 15:00:00+00:00,710.1498894097267
2025-08-04 17:00:00+00:00,710.1498894097267
2025-08-04 18:00:00+00:00,710.1498894097267
2025-08-04 19:00:00+00:00,710.1498894097267
2025-08-05 13:00:00+00:00,710.1498894097267
2025-08-05 14:00:00+00:00,710.1498894097267
2025-08-05 16:00:00+00:00,710.1498894097267
2025-08-05 17:00:00+00:00,710.1498894097267
2025-08-05 19:00:00+00:00,710.1498894097267
2025-08-06 13:00:00+00:00,710.1498894097267
2025-08-06 15:00:00+00:00,710.1498894097267
2025-08-06 19:00:00+00:00,710.1498894097267
2025-08-07 13:00:00+00:00,710.1498894097267
2025-08-07 14:00:00+00:00,710.1498894097267
2025-08-07 15:00:00+00:00,710.1498894097267
2025-08-07 16:00:00+00:00,710.1498894097267
2025-08-07 17:00:00+00:00,710.1498894097267
2025-08-07 18:00:00+00:00,710.1498894097267
2025-08-07 19:00:00+00:00,710.1498894097267
2025-08-08 13:00:00+00:00,710.1498894097267
2025-08-08 14:00:00+00:00,710.1498894097267
2025-08-08 16:00:00+00:00,710.1498894097267
2025-08-08 17:00:00+00:00,710.1498894097267
2025-08-08 18:00:00+00:00,710.1498894097267
2025-08-08 19:00:00+00:00,710.1498894097267
2025-08-11 13:00:00+00:00,710.1498894097267
2025-08-11 14:00:00+00:00,710.1498894097267
2025-08-11 15:00:00+00:00,710.1498894097267
2025-08-11 18:00:00+00:00,710.1498894097267
2025-08-11 19:00:00+00:00,710.1498894097267
2025-08-12 13:00:00+00:00,710.1498894097267
2025-08-12 14:00:00+00:00,710.1498894097267
2025-08-12 15:00:00+00:00,710.1498894097267
2025-08-12 16:00:00+00:00,710.1498894097267
2025-08-12 17:00:00+00:00,710.1498894097267
2025-08-12 18:00:00+00:00,710.1498894097267
2025-08-13 13:00:00+00:00,710.1498894097267
2025-08-13 14:00:00+00:00,710.1498894097267
2025-08-13 15:00:00+00:00,710.1498894097267
2025-08-13 16:00:00+00:00,710.1498894097267
2025-08-13 18:00:00+00:00,710.1498894097267
2025-08-13 19:00:00+00:00,710.1498894097267
2025-08-14 13:00:00+00:00,710.1498894097267
2025-08-14 14:00:00+00:00,710.1498894097267
2025-08-14 15:00:00+00:00,710.1498894097267
2025-08-14 16:00:00+00:00,710.1498894097267
2025-08-14 18:00:00+00:00,710.1498894097267
2025-08-15 13:00:00+00:00,710.1498894097267
2025-08-15 14:00:00+00:00,710.1498894097267
2025-08-15 16:00:00+00:00,710.1498894097267
2025-08-15 17:00:00+00:00,710.1498894097267
2025-08-15 18:00:00+00:00,710.1498894097267
2025-08-18 13:00:00+00:00,710.1498894097267
2025-08-18 14:00:00+00:00,710.1498894097267
2025-08-18 15:00:00+00:00,710.1498894097267
2025-08-18 16:00:00+00:00,710.1498894097267
2025-08-18 18:00:00+00:00,710.1498894097267
2025-08-18 19:00:00+00:00,710.1498894097267
2025-08-19 13:00:00+00:00,710.1498894097267
2025-08-19 14:00:00+00:00,710.1498894097267
2025-08-19 15:00:00+00:00,710.1498894097267
2025-08-19 17:00:00+00:00,710.1498894097267
2025-08-19 18:00:00+00:00,710.1498894097267
2025-08-19 19:00:00+00:00,710.1498894097267
2025-08-20 13:00:00+00:00,710.1498894097267
2025-08-20 15:00:00+00:00,710.1498894097267
2025-08-20 16:00:00+00:00,710.1498894097267
2025-08-20 17:00:00+00:00,710.1498894097267
2025-08-21 13:00:00+00:00,710.1498894097267
2025-08-21 14:00:00+00:00,710.1498894097267
2025-08-21 18:00:00+00:00,710.1498894097267
2025-08-21 19:00:00+00:00,710.1498894097267
2025-08-22 13:00:00+00:00,710.1498894097267
2025-08-22 14:00:00+00:00,615.2653952539197
2025-08-22 15:00:00+00:00,617.3009945094042
2025-08-22 16:00:00+00:00,643.9497779901367
2025-08-22 18:00:00+00:00,680.134874651536
2025-08-22 19:00:00+00:00,693.3985876914127
2025-08-25 13:00:00+00:00,789.3604206774812
2025-08-25 14:00:00+00:00,801.3642620736085
2025-08-25 15:00:00+00:00,792.9212241499619
2025-08-25 17:00:00+00:00,789.5037047337607
2025-08-26 13:00:00+00:00,817.3931330313098
2025-08-26 14:00:00+00:00,789.8001831359371
2025-08-26 18:00:00+00:00,785.6438174228387
2025-08-26 19:00:00+00:00,804.0828489285301
2025-08-27 13:00:00+00:00,802.3357580370553
2025-08-27 14:00:00+00:00,793.6681942425249
2025-08-27 15:00:00+00:00,795.2913731270631
2025-08-27 16:00:00+00:00,792.0268173313727
2025-08-27 17:00:00+00:00,776.4122070123319
2025-08-27 18:00:00+00:00,774.8821827923076
2025-08-27 19:00:00+00:00,776.543676053972
2025-08-28 14:00:00+00:00,806.9389146263151
2025-08-28 18:00:00+00:00,790.4818133744008
2025-08-28 19:00:00+00:00,784.0327599796416
2025-08-29 15:00:00+00:00,781.1564143721897
2025-08-29 16:00:00+00:00,769.9766447521857
2025-08-29 19:00:00+00:00,791.5456525349636
2025-09-02 13:00:00+00:00,843.5747889783619
2025-09-02 14:00:00+00:00,852.9524421979694
2025-09-02 15:00:00+00:00,883.6073559138349
2025-09-02 18:00:00+00:00,875.6144064787684
2025-09-02 19:00:00+00:00,873.6941152648645
2025-09-03 13:00:00+00:00,819.6357408849443
2025-09-03 15:00:00+00:00,814.6931252708549
2025-09-03 16:00:00+00:00,830.2673965185145
2025-09-03 17:00:00+00:00,835.300165633967
2025-09-04 13:00:00+00:00,818.7251396602031
2025-09-04 14:00:00+00:00,771.3425999655651
2025-09-04 18:00:00+00:00,766.8587773777333
2025-09-05 13:00:00+00:00,640.0887480898871
2025-09-05 14:00:00+00:00,584.2679741387077
2025-09-05 15:00:00+00:00,618.7917104285565
2025-09-05 16:00:00+00:00,582.7895372437438
2025-09-05 17:00:00+00:00,567.8005468566677
2025-09-05 18:00:00+00:00,566.2074382021832
2025-09-08 13:00:00+00:00,625.1640778802646
2025-09-08 14:00:00+00:00,608.5441695022755
2025-09-08 15:00:00+00:00,633.752460669456
2025-09-08 18:00:00+00:00,625.4495738089879
2025-09-08 19:00:00+00:00,598.0335054775894
2025-09-09 13:00:00+00:00,818.5066722442589
2025-09-09 14:00:00+00:00,856.9915743052085
2025-09-09 15:00:00+00:00,850.8580649352705
2025-09-09 17:00:00+00:00,880.4537931973945
2025-09-09 18:00:00+00:00,877.9227835258833
2025-09-09 19:00:00+00:00,856.7656702059685
2025-09-10 13:00:00+00:00,869.2756550472701
2025-09-10 14:00:00+00:00,919.6986639835301
2025-09-10 15:00:00+00:00,919.6986639835301
2025-09-10 17:00:00+00:00,919.6986639835301
2025-09-11 13:00:00+00:00,919.6986639835301
2025-09-11 14:00:00+00:00,919.6986639835301
2025-09-11 18:00:00+00:00,919.6986639835301
2025-09-11 19:00:00+00:00,919.6986639835301
2025-09-12 13:00:00+00:00,919.6986639835301
2025-09-12 14:00:00+00:00,919.6986639835301
2025-09-12 15:00:00+00:00,919.6986639835301
2025-09-12 16:00:00+00:00,919.6986639835301
2025-09-12 17:00:00+00:00,919.6986639835301
2025-09-12 18:00:00+00:00,919.6986639835301
2025-09-12 19:00:00+00:00,919.6986639835301
2025-09-15 13:00:00+00:00,919.6986639835301
2025-09-15 14:00:00+00:00,919.6986639835301
2025-09-15 17:00:00+00:00,919.6986639835301
2025-09-15 18:00:00+00:00,919.6986639835301
2025-09-15 19:00:00+00:00,919.6986639835301
2025-09-16 13:00:00+00:00,919.6986639835301
2025-09-16 18:00:00+00:00,919.6986639835301
2025-09-17 13:00:00+00:00,919.6986639835301
2025-09-17 16:00:00+00:00,919.6986639835301
2025-09-17 17:00:00+00:00,919.6986639835301
2025-09-17 18:00:00+00:00,919.6986639835301
2025-09-17 19:00:00+00:00,919.6986639835301
2025-09-18 13:00:00+00:00,919.6986639835301
2025-09-18 14:00:00+00:00,919.6986639835301
2025-09-18 16:00:00+00:00,919.6986639835301
2025-09-18 18:00:00+00:00,919.6986639835301
2025-09-19 13:00:00+00:00,919.6986639835301
2025-09-19 15:00:00+00:00,919.6986639835301
2025-09-19 17:00:00+00:00,919.6986639835301
2025-09-19 19:00:00+00:00,919.6986639835301
2025-09-22 13:00:00+00:00,919.6986639835301
2025-09-22 14:00:00+00:00,919.6986639835301
2025-09-22 15:00:00+00:00,919.6986639835301
2025-09-22 18:00:00+00:00,919.6986639835301
2025-09-22 19:00:00+00:00,919.6986639835301
2025-09-23 13:00:00+00:00,919.6986639835301
2025-09-23 14:00:00+00:00,919.6986639835301
2025-09-23 15:00:00+00:00,919.6986639835301
2025-09-23 19:00:00+00:00,919.6986639835301
2025-09-24 15:00:00+00:00,919.6986639835301
2025-09-24 17:00:00+00:00,919.6986639835301
2025-09-24 18:00:00+00:00,919.6986639835301
2025-09-24 19:00:00+00:00,919.6986639835301
2025-09-25 13:00:00+00:00,919.6986639835301
2025-09-25 15:00:00+00:00,919.6986639835301
2025-09-25 17:00:00+00:00,919.6986639835301
2025-09-25 18:00:00+00:00,919.6986639835301
2025-09-26 13:00:00+00:00,919.6986639835301
2025-09-26 14:00:00+00:00,919.6986639835301
2025-09-26 17:00:00+00:00,919.6986639835301
2025-09-26 18:00:00+00:00,919.6986639835301
2025-09-26 19:00:00+00:00,919.6986639835301
2025-09-29 13:00:00+00:00,919.6986639835301
2025-09-29 14:00:00+00:00,919.6986639835301
2025-09-29 16:00:00+00:00,919.6986639835301
2025-09-29 17:00:00+00:00,919.6986639835301
2025-09-29 18:00:00+00:00,919.6986639835301
2025-09-29 19:00:00+00:00,919.6986639835301
2025-09-30 13:00:00+00:00,919.6986639835301
2025-09-30 14:00:00+00:00,919.6986639835301
2025-09-30 15:00:00+00:00,919.6986639835301
2025-09-30 16:00:00+00:00,919.6986639835301
2025-09-30 18:00:00+00:00,919.6986639835301
2025-09-30 19:00:00+00:00,919.6986639835301
2025-10-01 13:00:00+00:00,919.6986639835301
2025-10-01 14:00:00+00:00,919.6986639835301
2025-10-01 16:00:00+00:00,919.6986639835301
2025-10-01 19:00:00+00:00,919.6986639835301
2025-10-02 13:00:00+00:00,919.6986639835301
2025-10-02 14:00:00+00:00,919.6986639835301
2025-10-02 15:00:00+00:00,919.6986639835301
2025-10-02 16:00:00+00:00,919.6986639835301
2025-10-02 17:00:00+00:00,919.6986639835301
2025-10-02 18:00:00+00:00,919.6986639835301
2025-10-02 19:00:00+00:00,919.6986639835301
2025-10-03 13:00:00+00:00,919.6986639835301
2025-10-03 14:00:00+00:00,919.6986639835301
2025-10-03 15:00:00+00:00,919.6986639835301
2025-10-03 16:00:00+00:00,919.6986639835301
2025-10-03 17:00:00+00:00,919.6986639835301
2025-10-03 19:00:00+00:00,919.6986639835301
2025-10-06 13:00:00+00:00,919.6986639835301
2025-10-06 14:00:00+00:00,919.6986639835301
2025-10-06 15:00:00+00:00,919.6986639835301
2025-10-06 16:00:00+00:00,919.6986639835301
2025-10-06 17:00:00+00:00,919.6986639835301
2025-10-06 18:00:00+00:00,919.6986639835301
2025-10-06 19:00:00+00:00,919.6986639835301
2025-10-07 13:00:00+00:00,919.6986639835301
2025-10-07 14:00:00+00:00,919.6986639835301
2025-10-07 15:00:00+00:00,919.6986639835301
2025-10-07 16:00:00+00:00,919.6986639835301
2025-10-07 17:00:00+00:00,919.6986639835301
2025-10-07 18:00:00+00:00,919.6986639835301
2025-10-07 19:00:00+00:00,919.6986639835301
2025-10-08 13:00:00+00:00,919.6986639835301
2025-10-08 14:00:00+00:00,919.6986639835301
2025-10-08 15:00:00+00:00,919.6986639835301
2025-10-08 18:00:00+00:00,919.6986639835301
2025-10-08 19:00:00+00:00,919.6986639835301
2025-10-09 13:00:00+00:00,919.6986639835301
2025-10-09 14:00:00+00:00,919.6986639835301
2025-10-09 15:00:00+00:00,919.6986639835301
2025-10-09 18:00:00+00:00,919.6986639835301
2025-10-10 13:00:00+00:00,919.6986639835301
2025-10-10 14:00:00+00:00,919.6986639835301
2025-10-10 15:00:00+00:00,919.6986639835301
2025-10-10 16:00:00+00:00,919.6986639835301
2025-10-10 18:00:00+00:00,919.6986639835301
2025-10-13 13:00:00+00:00,919.6986639835301
2025-10-13 14:00:00+00:00,919.6986639835301
2025-10-13 15:00:00+00:00,919.6986639835301
2025-10-13 16:00:00+00:00,919.6986639835301
2025-10-13 18:00:00+00:00,919.6986639835301
2025-10-13 19:00:00+00:00,919.6986639835301
2025-10-14 13:00:00+00:00,919.6986639835301
2025-10-14 14:00:00+00:00,919.6986639835301
2025-10-14 16:00:00+00:00,919.6986639835301
2025-10-14 17:00:00+00:00,919.6986639835301
2025-10-14 18:00:00+00:00,919.6986639835301
2025-10-14 19:00:00+00:00,919.6986639835301
2025-10-15 13:00:00+00:00,919.6986639835301
2025-10-15 14:00:00+00:00,919.6986639835301
2025-10-15 15:00:00+00:00,919.6986639835301
2025-10-15 18:00:00+00:00,919.6986639835301
2025-10-15 19:00:00+00:00,919.6986639835301
2025-10-16 13:00:00+00:00,919.6986639835301
2025-10-16 14:00:00+00:00,919.6986639835301
2025-10-16 15:00:00+00:00,919.6986639835301
2025-10-16 16:00:00+00:00,919.6986639835301
2025-10-16 17:00:00+00:00,919.6986639835301
2025-10-16 18:00:00+00:00,919.6986639835301
2025-10-16 19:00:00+00:00,919.6986639835301
2025-10-17 13:00:00+00:00,919.6986639835301
2025-10-17 14:00:00+00:00,919.6986639835301
2025-10-17 15:00:00+00:00,919.6986639835301
2025-10-17 17:00:00+00:00,919.6986639835301
2025-10-17 18:00:00+00:00,919.6986639835301
2025-10-20 13:00:00+00:00,919.6986639835301
2025-10-20 14:00:00+00:00,919.6986639835301
2025-10-20 17:00:00+00:00,919.6986639835301
2025-10-20 18:00:00+00:00,919.6986639835301
2025-10-21 13:00:00+00:00,919.6986639835301
2025-10-21 14:00:00+00:00,919.6986639835301
2025-10-21 16:00:00+00:00,919.6986639835301
2025-10-21 17:00:00+00:00,919.6986639835301
2025-10-21 18:00:00+00:00,919.6986639835301
2025-10-21 19:00:00+00:00,919.6986639835301
2025-10-22 13:00:00+00:00,919.6986639835301
2025-10-22 14:00:00+00:00,919.6986639835301
2025-10-22 16:00:00+00:00,919.6986639835301
2025-10-22 17:00:00+00:00,919.6986639835301
2025-10-22 18:00:00+00:00,919.6986639835301
2025-10-22 19:00:00+00:00,919.6986639835301
