Date,0
2024-01-02 14:00:00+00:00,0.0
2024-01-02 15:00:00+00:00,0.0
2024-01-02 16:00:00+00:00,0.0
2024-01-02 17:00:00+00:00,0.0
2024-01-02 18:00:00+00:00,0.0
2024-01-02 19:00:00+00:00,0.0
2024-01-02 20:00:00+00:00,0.0
2024-01-03 14:00:00+00:00,0.0
2024-01-03 15:00:00+00:00,0.0
2024-01-03 16:00:00+00:00,0.0
2024-01-03 17:00:00+00:00,0.0
2024-01-03 18:00:00+00:00,0.0
2024-01-03 19:00:00+00:00,0.0
2024-01-03 20:00:00+00:00,0.0
2024-01-04 14:00:00+00:00,0.0
2024-01-04 15:00:00+00:00,0.0
2024-01-04 16:00:00+00:00,0.0
2024-01-04 17:00:00+00:00,0.0
2024-01-04 18:00:00+00:00,0.0
2024-01-04 19:00:00+00:00,0.0
2024-01-04 20:00:00+00:00,0.0
2024-01-05 14:00:00+00:00,0.0
2024-01-05 15:00:00+00:00,0.0
2024-01-05 16:00:00+00:00,0.0
2024-01-05 17:00:00+00:00,0.0
2024-01-05 18:00:00+00:00,0.0
2024-01-05 19:00:00+00:00,0.0
2024-01-05 20:00:00+00:00,0.0
2024-01-08 14:00:00+00:00,0.0
2024-01-08 15:00:00+00:00,0.0
2024-01-08 16:00:00+00:00,0.0
2024-01-08 17:00:00+00:00,0.0
2024-01-08 18:00:00+00:00,0.0
2024-01-08 19:00:00+00:00,0.0
2024-01-08 20:00:00+00:00,0.0
2024-01-09 14:00:00+00:00,0.0
2024-01-09 15:00:00+00:00,0.0
2024-01-09 16:00:00+00:00,0.0
2024-01-09 17:00:00+00:00,0.0
2024-01-09 18:00:00+00:00,0.0
2024-01-09 19:00:00+00:00,0.0
2024-01-09 20:00:00+00:00,0.0
2024-01-10 14:00:00+00:00,0.0
2024-01-10 15:00:00+00:00,0.0
2024-01-10 16:00:00+00:00,0.0
2024-01-10 17:00:00+00:00,0.0
2024-01-10 18:00:00+00:00,0.0
2024-01-10 19:00:00+00:00,0.0
2024-01-10 20:00:00+00:00,0.0
2024-01-11 14:00:00+00:00,0.0
2024-01-11 15:00:00+00:00,0.0
2024-01-11 16:00:00+00:00,0.0
2024-01-11 17:00:00+00:00,0.0
2024-01-11 18:00:00+00:00,0.0
2024-01-11 19:00:00+00:00,0.0
2024-01-11 20:00:00+00:00,0.0
2024-01-12 14:00:00+00:00,0.0
2024-01-12 15:00:00+00:00,0.0
2024-01-12 16:00:00+00:00,0.0
2024-01-12 17:00:00+00:00,0.0
2024-01-12 18:00:00+00:00,0.0
2024-01-12 19:00:00+00:00,0.0
2024-01-12 20:00:00+00:00,0.0
2024-01-16 14:00:00+00:00,0.0
2024-01-16 15:00:00+00:00,0.0
2024-01-16 16:00:00+00:00,0.0
2024-01-16 17:00:00+00:00,0.0
2024-01-16 18:00:00+00:00,0.0
2024-01-16 19:00:00+00:00,0.0
2024-01-16 20:00:00+00:00,0.0
2024-01-17 14:00:00+00:00,0.0
2024-01-17 15:00:00+00:00,0.0
2024-01-17 16:00:00+00:00,0.0
2024-01-17 17:00:00+00:00,0.0
2024-01-17 18:00:00+00:00,0.0
2024-01-17 19:00:00+00:00,0.0
2024-01-17 20:00:00+00:00,0.0
2024-01-18 14:00:00+00:00,0.0
2024-01-18 15:00:00+00:00,0.0
2024-01-18 16:00:00+00:00,0.0
2024-01-18 17:00:00+00:00,0.0
2024-01-18 18:00:00+00:00,0.0
2024-01-18 19:00:00+00:00,0.0
2024-01-18 20:00:00+00:00,0.0
2024-01-19 14:00:00+00:00,0.0
2024-01-19 15:00:00+00:00,0.0
2024-01-19 16:00:00+00:00,0.0
2024-01-19 17:00:00+00:00,0.0
2024-01-19 18:00:00+00:00,0.0
2024-01-19 19:00:00+00:00,0.0
2024-01-19 20:00:00+00:00,0.0
2024-01-22 14:00:00+00:00,0.0
2024-01-22 15:00:00+00:00,0.0
2024-01-22 16:00:00+00:00,0.0
2024-01-22 17:00:00+00:00,0.0
2024-01-22 18:00:00+00:00,0.0
2024-01-22 19:00:00+00:00,0.0
2024-01-22 20:00:00+00:00,0.0
2024-01-23 14:00:00+00:00,0.0
2024-01-23 15:00:00+00:00,0.0
2024-01-23 16:00:00+00:00,0.0
2024-01-23 17:00:00+00:00,0.0
2024-01-23 18:00:00+00:00,0.0
2024-01-23 19:00:00+00:00,0.0
2024-01-23 20:00:00+00:00,0.0
2024-01-24 14:00:00+00:00,0.0
2024-01-24 15:00:00+00:00,0.0
2024-01-24 16:00:00+00:00,0.0
2024-01-24 17:00:00+00:00,0.0
2024-01-24 18:00:00+00:00,0.0
2024-01-24 19:00:00+00:00,0.0
2024-01-24 20:00:00+00:00,0.0
2024-01-25 14:00:00+00:00,0.0
2024-01-25 15:00:00+00:00,0.0
2024-01-25 16:00:00+00:00,0.0
2024-01-25 17:00:00+00:00,0.0
2024-01-25 18:00:00+00:00,0.0
2024-01-25 19:00:00+00:00,0.0
2024-01-25 20:00:00+00:00,0.0
2024-01-26 14:00:00+00:00,0.0
2024-01-26 15:00:00+00:00,0.0
2024-01-26 16:00:00+00:00,0.0
2024-01-26 17:00:00+00:00,0.0
2024-01-26 18:00:00+00:00,0.0
2024-01-26 19:00:00+00:00,0.0
2024-01-26 20:00:00+00:00,0.0
2024-01-29 14:00:00+00:00,0.0
2024-01-29 15:00:00+00:00,0.0
2024-01-29 16:00:00+00:00,0.0
2024-01-29 17:00:00+00:00,0.0
2024-01-29 18:00:00+00:00,0.0
2024-01-29 19:00:00+00:00,0.0
2024-01-29 20:00:00+00:00,0.0
2024-01-30 14:00:00+00:00,0.0
2024-01-30 15:00:00+00:00,0.0
2024-01-30 16:00:00+00:00,0.0
2024-01-30 17:00:00+00:00,0.0
2024-01-30 18:00:00+00:00,0.0
2024-01-30 19:00:00+00:00,0.0
2024-01-30 20:00:00+00:00,0.0
2024-01-31 14:00:00+00:00,0.0
2024-01-31 15:00:00+00:00,0.0
2024-01-31 16:00:00+00:00,0.0
2024-01-31 17:00:00+00:00,0.0
2024-01-31 18:00:00+00:00,0.0
2024-01-31 19:00:00+00:00,0.0
2024-01-31 20:00:00+00:00,0.0
2024-02-01 14:00:00+00:00,0.0
2024-02-01 15:00:00+00:00,0.0
2024-02-01 16:00:00+00:00,0.0
2024-02-01 17:00:00+00:00,0.0
2024-02-01 18:00:00+00:00,0.0
2024-02-01 19:00:00+00:00,0.0
2024-02-01 20:00:00+00:00,0.0
2024-02-02 14:00:00+00:00,0.0
2024-02-02 15:00:00+00:00,0.0
2024-02-02 16:00:00+00:00,0.0
2024-02-02 17:00:00+00:00,0.0
2024-02-02 18:00:00+00:00,0.0
2024-02-02 19:00:00+00:00,0.0
2024-02-02 20:00:00+00:00,0.0
2024-02-05 14:00:00+00:00,0.0
2024-02-05 15:00:00+00:00,0.0
2024-02-05 16:00:00+00:00,0.0
2024-02-05 17:00:00+00:00,0.0
2024-02-05 18:00:00+00:00,0.0
2024-02-05 19:00:00+00:00,0.0
2024-02-05 20:00:00+00:00,0.0
2024-02-06 14:00:00+00:00,0.0
2024-02-06 15:00:00+00:00,0.0
2024-02-06 16:00:00+00:00,0.0
2024-02-06 17:00:00+00:00,0.0
2024-02-06 18:00:00+00:00,0.0
2024-02-06 19:00:00+00:00,0.0
2024-02-06 20:00:00+00:00,0.0
2024-02-07 14:00:00+00:00,0.0
2024-02-07 15:00:00+00:00,0.0
2024-02-07 16:00:00+00:00,0.0
2024-02-07 17:00:00+00:00,0.0
2024-02-07 18:00:00+00:00,0.0
2024-02-07 19:00:00+00:00,0.0
2024-02-07 20:00:00+00:00,0.0
2024-02-08 14:00:00+00:00,0.0
2024-02-08 15:00:00+00:00,0.0
2024-02-08 16:00:00+00:00,0.0
2024-02-08 17:00:00+00:00,0.0
2024-02-08 18:00:00+00:00,0.0
2024-02-08 19:00:00+00:00,0.0
2024-02-08 20:00:00+00:00,0.0
2024-02-09 14:00:00+00:00,0.0
2024-02-09 15:00:00+00:00,0.0
2024-02-09 16:00:00+00:00,0.0
2024-02-09 17:00:00+00:00,0.0
2024-02-09 18:00:00+00:00,0.0
2024-02-09 19:00:00+00:00,0.0
2024-02-09 20:00:00+00:00,0.0
2024-02-12 14:00:00+00:00,0.0
2024-02-12 15:00:00+00:00,0.0
2024-02-12 16:00:00+00:00,0.0
2024-02-12 17:00:00+00:00,0.0
2024-02-12 18:00:00+00:00,0.0
2024-02-12 19:00:00+00:00,0.0
2024-02-12 20:00:00+00:00,0.0
2024-02-13 14:00:00+00:00,0.0
2024-02-13 15:00:00+00:00,0.0
2024-02-13 16:00:00+00:00,0.0
2024-02-13 17:00:00+00:00,0.0
2024-02-13 18:00:00+00:00,0.0
2024-02-13 19:00:00+00:00,0.0
2024-02-13 20:00:00+00:00,0.0
2024-02-14 14:00:00+00:00,0.0
2024-02-14 15:00:00+00:00,0.0
2024-02-14 16:00:00+00:00,0.0
2024-02-14 17:00:00+00:00,0.0
2024-02-14 18:00:00+00:00,0.0
2024-02-14 19:00:00+00:00,0.0
2024-02-14 20:00:00+00:00,0.0
2024-02-15 14:00:00+00:00,0.0
2024-02-15 15:00:00+00:00,0.0
2024-02-15 16:00:00+00:00,0.0
2024-02-15 17:00:00+00:00,0.0
2024-02-15 18:00:00+00:00,0.0
2024-02-15 19:00:00+00:00,0.0
2024-02-15 20:00:00+00:00,0.0
2024-02-16 14:00:00+00:00,0.0
2024-02-16 15:00:00+00:00,0.0
2024-02-16 16:00:00+00:00,0.0
2024-02-16 17:00:00+00:00,0.0
2024-02-16 18:00:00+00:00,0.0
2024-02-16 19:00:00+00:00,0.0
2024-02-16 20:00:00+00:00,0.0
2024-02-20 14:00:00+00:00,0.0
2024-02-20 15:00:00+00:00,0.0
2024-02-20 16:00:00+00:00,0.0
2024-02-20 17:00:00+00:00,0.0
2024-02-20 18:00:00+00:00,0.0
2024-02-20 19:00:00+00:00,0.0
2024-02-20 20:00:00+00:00,0.0
2024-02-21 14:00:00+00:00,0.0
2024-02-21 15:00:00+00:00,0.0
2024-02-21 16:00:00+00:00,0.0
2024-02-21 17:00:00+00:00,0.0
2024-02-21 18:00:00+00:00,0.0
2024-02-21 19:00:00+00:00,0.0
2024-02-21 20:00:00+00:00,0.0
2024-02-22 14:00:00+00:00,0.0
2024-02-22 15:00:00+00:00,0.0
2024-02-22 16:00:00+00:00,0.0
2024-02-22 17:00:00+00:00,0.0
2024-02-22 18:00:00+00:00,0.0
2024-02-22 19:00:00+00:00,0.0
2024-02-22 20:00:00+00:00,0.0
2024-02-23 14:00:00+00:00,0.0
2024-02-23 15:00:00+00:00,0.0
2024-02-23 16:00:00+00:00,0.0
2024-02-23 17:00:00+00:00,0.0
2024-02-23 18:00:00+00:00,0.0
2024-02-23 19:00:00+00:00,0.0
2024-02-23 20:00:00+00:00,0.0
2024-02-26 14:00:00+00:00,0.0
2024-02-26 15:00:00+00:00,0.0
2024-02-26 16:00:00+00:00,0.0
2024-02-26 17:00:00+00:00,0.0
2024-02-26 18:00:00+00:00,0.0
2024-02-26 19:00:00+00:00,0.0
2024-02-26 20:00:00+00:00,0.0
2024-02-27 14:00:00+00:00,0.0
2024-02-27 15:00:00+00:00,0.0
2024-02-27 16:00:00+00:00,0.0
2024-02-27 17:00:00+00:00,0.0
2024-02-27 18:00:00+00:00,0.0
2024-02-27 19:00:00+00:00,0.0
2024-02-27 20:00:00+00:00,0.0
2024-02-28 14:00:00+00:00,0.0
2024-02-28 15:00:00+00:00,0.0
2024-02-28 16:00:00+00:00,0.0
2024-02-28 17:00:00+00:00,0.0
2024-02-28 18:00:00+00:00,0.0
2024-02-28 19:00:00+00:00,0.0
2024-02-28 20:00:00+00:00,0.0
2024-02-29 14:00:00+00:00,0.0
2024-02-29 15:00:00+00:00,0.0
2024-02-29 16:00:00+00:00,0.0
2024-02-29 17:00:00+00:00,0.0
2024-02-29 18:00:00+00:00,0.0
2024-02-29 19:00:00+00:00,0.0
2024-02-29 20:00:00+00:00,0.0
2024-03-01 14:00:00+00:00,0.0
2024-03-01 15:00:00+00:00,0.0
2024-03-01 16:00:00+00:00,0.0
2024-03-01 17:00:00+00:00,0.0
2024-03-01 18:00:00+00:00,0.0
2024-03-01 19:00:00+00:00,0.0
2024-03-01 20:00:00+00:00,0.0
2024-03-04 14:00:00+00:00,0.0
2024-03-04 15:00:00+00:00,0.0
2024-03-04 16:00:00+00:00,0.0
2024-03-04 17:00:00+00:00,0.0
2024-03-04 18:00:00+00:00,0.0
2024-03-04 19:00:00+00:00,0.0
2024-03-04 20:00:00+00:00,0.0
2024-03-05 14:00:00+00:00,0.0
2024-03-05 15:00:00+00:00,0.0
2024-03-05 16:00:00+00:00,0.0
2024-03-05 17:00:00+00:00,0.0
2024-03-05 18:00:00+00:00,0.0
2024-03-05 19:00:00+00:00,0.0
2024-03-05 20:00:00+00:00,0.0
2024-03-06 14:00:00+00:00,0.0
2024-03-06 15:00:00+00:00,0.0
2024-03-06 16:00:00+00:00,0.0
2024-03-06 17:00:00+00:00,0.0
2024-03-06 18:00:00+00:00,0.0
2024-03-06 19:00:00+00:00,0.0
2024-03-06 20:00:00+00:00,0.0
2024-03-07 14:00:00+00:00,0.0
2024-03-07 15:00:00+00:00,0.0
2024-03-07 16:00:00+00:00,0.0
2024-03-07 17:00:00+00:00,0.0
2024-03-07 18:00:00+00:00,0.0
2024-03-07 19:00:00+00:00,0.0
2024-03-07 20:00:00+00:00,0.0
2024-03-08 14:00:00+00:00,0.0
2024-03-08 15:00:00+00:00,0.0
2024-03-08 16:00:00+00:00,0.0
2024-03-08 17:00:00+00:00,0.0
2024-03-08 18:00:00+00:00,0.0
2024-03-08 19:00:00+00:00,0.0
2024-03-08 20:00:00+00:00,0.0
2024-03-11 13:00:00+00:00,0.0
2024-03-11 14:00:00+00:00,0.0
2024-03-11 15:00:00+00:00,0.0
2024-03-11 16:00:00+00:00,0.0
2024-03-11 17:00:00+00:00,0.0
2024-03-11 18:00:00+00:00,0.0
2024-03-11 19:00:00+00:00,0.0
2024-03-12 13:00:00+00:00,0.0
2024-03-12 14:00:00+00:00,0.0
2024-03-12 15:00:00+00:00,0.0
2024-03-12 16:00:00+00:00,0.0
2024-03-12 17:00:00+00:00,0.0
2024-03-12 18:00:00+00:00,0.0
2024-03-12 19:00:00+00:00,0.0
2024-03-13 13:00:00+00:00,0.0
2024-03-13 14:00:00+00:00,0.0
2024-03-13 15:00:00+00:00,0.0
2024-03-13 16:00:00+00:00,0.0
2024-03-13 17:00:00+00:00,0.0
2024-03-13 18:00:00+00:00,0.0
2024-03-13 19:00:00+00:00,0.0
2024-03-14 13:00:00+00:00,0.0
2024-03-14 14:00:00+00:00,0.0
2024-03-14 15:00:00+00:00,0.0
2024-03-14 16:00:00+00:00,0.0
2024-03-14 17:00:00+00:00,0.0
2024-03-14 18:00:00+00:00,0.0
2024-03-14 19:00:00+00:00,0.0
2024-03-15 13:00:00+00:00,0.0
2024-03-15 14:00:00+00:00,0.0
2024-03-15 15:00:00+00:00,0.0
2024-03-15 16:00:00+00:00,0.0
2024-03-15 17:00:00+00:00,0.0
2024-03-15 18:00:00+00:00,0.0
2024-03-15 19:00:00+00:00,0.0
2024-03-18 13:00:00+00:00,0.0
2024-03-18 14:00:00+00:00,0.0
2024-03-18 15:00:00+00:00,0.0
2024-03-18 16:00:00+00:00,0.0
2024-03-18 17:00:00+00:00,0.0
2024-03-18 18:00:00+00:00,0.0
2024-03-18 19:00:00+00:00,0.0
2024-03-19 13:00:00+00:00,0.0
2024-03-19 14:00:00+00:00,0.0
2024-03-19 15:00:00+00:00,0.0
2024-03-19 16:00:00+00:00,0.0
2024-03-19 17:00:00+00:00,0.0
2024-03-19 18:00:00+00:00,0.0
2024-03-19 19:00:00+00:00,0.0
2024-03-20 13:00:00+00:00,0.0
2024-03-20 14:00:00+00:00,0.0
2024-03-20 15:00:00+00:00,0.0
2024-03-20 16:00:00+00:00,0.0
2024-03-20 17:00:00+00:00,0.0
2024-03-20 18:00:00+00:00,0.0
2024-03-20 19:00:00+00:00,0.0
2024-03-21 13:00:00+00:00,0.0
2024-03-21 14:00:00+00:00,0.0
2024-03-21 15:00:00+00:00,0.0
2024-03-21 16:00:00+00:00,0.0
2024-03-21 17:00:00+00:00,0.0
2024-03-21 18:00:00+00:00,0.0
2024-03-21 19:00:00+00:00,0.0
2024-03-22 13:00:00+00:00,0.0
2024-03-22 14:00:00+00:00,0.0
2024-03-22 15:00:00+00:00,0.0
2024-03-22 16:00:00+00:00,0.0
2024-03-22 17:00:00+00:00,0.0
2024-03-22 18:00:00+00:00,0.0
2024-03-22 19:00:00+00:00,0.0
2024-03-25 13:00:00+00:00,0.0
2024-03-25 14:00:00+00:00,0.0
2024-03-25 15:00:00+00:00,0.0
2024-03-25 16:00:00+00:00,0.0
2024-03-25 17:00:00+00:00,0.0
2024-03-25 18:00:00+00:00,0.0
2024-03-25 19:00:00+00:00,0.0
2024-03-26 13:00:00+00:00,0.0
2024-03-26 14:00:00+00:00,0.0
2024-03-26 15:00:00+00:00,0.0
2024-03-26 16:00:00+00:00,0.0
2024-03-26 17:00:00+00:00,0.0
2024-03-26 18:00:00+00:00,0.0
2024-03-26 19:00:00+00:00,0.0
2024-03-27 13:00:00+00:00,0.0
2024-03-27 14:00:00+00:00,0.0
2024-03-27 15:00:00+00:00,0.0
2024-03-27 16:00:00+00:00,0.0
2024-03-27 17:00:00+00:00,0.0
2024-03-27 18:00:00+00:00,0.0
2024-03-27 19:00:00+00:00,0.0
2024-03-28 13:00:00+00:00,0.0
2024-03-28 14:00:00+00:00,0.0
2024-03-28 15:00:00+00:00,0.0
2024-03-28 16:00:00+00:00,0.0
2024-03-28 17:00:00+00:00,0.0
2024-03-28 18:00:00+00:00,0.0
2024-03-28 19:00:00+00:00,0.0
2024-04-01 13:00:00+00:00,0.0
2024-04-01 14:00:00+00:00,0.0
2024-04-01 15:00:00+00:00,0.0
2024-04-01 16:00:00+00:00,0.0
2024-04-01 17:00:00+00:00,0.0
2024-04-01 18:00:00+00:00,0.0
2024-04-01 19:00:00+00:00,0.0
2024-04-02 13:00:00+00:00,0.0
2024-04-02 14:00:00+00:00,0.0
2024-04-02 15:00:00+00:00,0.0
2024-04-02 16:00:00+00:00,0.0
2024-04-02 17:00:00+00:00,0.0
2024-04-02 18:00:00+00:00,0.0
2024-04-02 19:00:00+00:00,0.0
2024-04-03 13:00:00+00:00,0.0
2024-04-03 14:00:00+00:00,0.0
2024-04-03 15:00:00+00:00,0.0
2024-04-03 16:00:00+00:00,0.0
2024-04-03 17:00:00+00:00,0.0
2024-04-03 18:00:00+00:00,0.0
2024-04-03 19:00:00+00:00,0.0
2024-04-04 13:00:00+00:00,0.0
2024-04-04 14:00:00+00:00,0.0
2024-04-04 15:00:00+00:00,0.0
2024-04-04 16:00:00+00:00,0.0
2024-04-04 17:00:00+00:00,0.0
2024-04-04 18:00:00+00:00,0.0
2024-04-04 19:00:00+00:00,0.0
2024-04-05 13:00:00+00:00,0.0
2024-04-05 14:00:00+00:00,0.0
2024-04-05 15:00:00+00:00,0.0
2024-04-05 16:00:00+00:00,0.0
2024-04-05 17:00:00+00:00,0.0
2024-04-05 18:00:00+00:00,0.0
2024-04-05 19:00:00+00:00,0.0
2024-04-08 13:00:00+00:00,0.0
2024-04-08 14:00:00+00:00,0.0
2024-04-08 15:00:00+00:00,0.0
2024-04-08 16:00:00+00:00,0.0
2024-04-08 17:00:00+00:00,0.0
2024-04-08 18:00:00+00:00,0.0
2024-04-08 19:00:00+00:00,0.0
2024-04-09 13:00:00+00:00,0.0
2024-04-09 14:00:00+00:00,0.0
2024-04-09 15:00:00+00:00,0.0
2024-04-09 16:00:00+00:00,0.0
2024-04-09 17:00:00+00:00,0.0
2024-04-09 18:00:00+00:00,0.0
2024-04-09 19:00:00+00:00,0.0
2024-04-10 13:00:00+00:00,0.0
2024-04-10 14:00:00+00:00,0.0
2024-04-10 15:00:00+00:00,0.0
2024-04-10 16:00:00+00:00,0.0
2024-04-10 17:00:00+00:00,0.0
2024-04-10 18:00:00+00:00,0.0
2024-04-10 19:00:00+00:00,0.0
2024-04-11 13:00:00+00:00,0.0
2024-04-11 14:00:00+00:00,0.0
2024-04-11 15:00:00+00:00,0.0
2024-04-11 16:00:00+00:00,0.0
2024-04-11 17:00:00+00:00,0.0
2024-04-11 18:00:00+00:00,0.0
2024-04-11 19:00:00+00:00,0.0
2024-04-12 13:00:00+00:00,0.0
2024-04-12 14:00:00+00:00,0.0
2024-04-12 15:00:00+00:00,0.0
2024-04-12 16:00:00+00:00,0.0
2024-04-12 17:00:00+00:00,0.0
2024-04-12 18:00:00+00:00,0.0
2024-04-12 19:00:00+00:00,0.0
2024-04-15 13:00:00+00:00,0.0
2024-04-15 14:00:00+00:00,0.0
2024-04-15 15:00:00+00:00,0.0
2024-04-15 16:00:00+00:00,0.0
2024-04-15 17:00:00+00:00,0.0
2024-04-15 18:00:00+00:00,0.0
2024-04-15 19:00:00+00:00,0.0
2024-04-16 13:00:00+00:00,0.0
2024-04-16 14:00:00+00:00,0.0
2024-04-16 15:00:00+00:00,0.0
2024-04-16 16:00:00+00:00,0.0
2024-04-16 17:00:00+00:00,0.0
2024-04-16 18:00:00+00:00,0.0
2024-04-16 19:00:00+00:00,0.0
2024-04-17 13:00:00+00:00,0.0
2024-04-17 14:00:00+00:00,0.0
2024-04-17 15:00:00+00:00,0.0
2024-04-17 16:00:00+00:00,0.0
2024-04-17 17:00:00+00:00,0.0
2024-04-17 18:00:00+00:00,0.0
2024-04-17 19:00:00+00:00,0.0
2024-04-18 13:00:00+00:00,0.0
2024-04-18 14:00:00+00:00,0.0
2024-04-18 15:00:00+00:00,0.0
2024-04-18 16:00:00+00:00,0.0
2024-04-18 17:00:00+00:00,0.0
2024-04-18 18:00:00+00:00,0.0
2024-04-18 19:00:00+00:00,0.0
2024-04-19 13:00:00+00:00,0.0
2024-04-19 14:00:00+00:00,0.0
2024-04-19 15:00:00+00:00,0.0
2024-04-19 16:00:00+00:00,0.0
2024-04-19 17:00:00+00:00,0.0
2024-04-19 18:00:00+00:00,0.0
2024-04-19 19:00:00+00:00,0.0
2024-04-22 13:00:00+00:00,0.0
2024-04-22 14:00:00+00:00,0.0
2024-04-22 15:00:00+00:00,0.0
2024-04-22 16:00:00+00:00,0.0
2024-04-22 17:00:00+00:00,0.0
2024-04-22 18:00:00+00:00,0.0
2024-04-22 19:00:00+00:00,0.0
2024-04-23 13:00:00+00:00,0.0
2024-04-23 14:00:00+00:00,0.0
2024-04-23 15:00:00+00:00,0.0
2024-04-23 16:00:00+00:00,0.0
2024-04-23 17:00:00+00:00,0.0
2024-04-23 18:00:00+00:00,0.0
2024-04-23 19:00:00+00:00,0.0
2024-04-24 13:00:00+00:00,0.0
2024-04-24 14:00:00+00:00,0.0
2024-04-24 15:00:00+00:00,0.0
2024-04-24 16:00:00+00:00,0.0
2024-04-24 17:00:00+00:00,0.0
2024-04-24 18:00:00+00:00,0.0
2024-04-24 19:00:00+00:00,0.0
2024-04-25 13:00:00+00:00,0.0
2024-04-25 14:00:00+00:00,0.0
2024-04-25 15:00:00+00:00,0.0
2024-04-25 16:00:00+00:00,0.0
2024-04-25 17:00:00+00:00,0.0
2024-04-25 18:00:00+00:00,0.0
2024-04-25 19:00:00+00:00,0.0
2024-04-26 13:00:00+00:00,0.0
2024-04-26 14:00:00+00:00,0.0
2024-04-26 15:00:00+00:00,0.0
2024-04-26 16:00:00+00:00,0.0
2024-04-26 17:00:00+00:00,0.0
2024-04-26 18:00:00+00:00,0.0
2024-04-26 19:00:00+00:00,0.0
2024-04-29 13:00:00+00:00,0.0
2024-04-29 14:00:00+00:00,0.0
2024-04-29 15:00:00+00:00,0.0
2024-04-29 16:00:00+00:00,0.0
2024-04-29 17:00:00+00:00,0.0
2024-04-29 18:00:00+00:00,0.0
2024-04-29 19:00:00+00:00,0.0
2024-04-30 13:00:00+00:00,0.0
2024-04-30 14:00:00+00:00,0.0
2024-04-30 15:00:00+00:00,0.0
2024-04-30 16:00:00+00:00,0.0
2024-04-30 17:00:00+00:00,0.0
2024-04-30 18:00:00+00:00,0.0
2024-04-30 19:00:00+00:00,0.0
2024-05-01 13:00:00+00:00,0.0
2024-05-01 14:00:00+00:00,0.0
2024-05-01 15:00:00+00:00,0.0
2024-05-01 16:00:00+00:00,0.0
2024-05-01 17:00:00+00:00,0.0
2024-05-01 18:00:00+00:00,0.0
2024-05-01 19:00:00+00:00,0.0
2024-05-02 13:00:00+00:00,0.0
2024-05-02 14:00:00+00:00,0.0
2024-05-02 15:00:00+00:00,0.0
2024-05-02 16:00:00+00:00,0.0
2024-05-02 17:00:00+00:00,0.0
2024-05-02 18:00:00+00:00,0.0
2024-05-02 19:00:00+00:00,0.0
2024-05-03 13:00:00+00:00,0.0
2024-05-03 14:00:00+00:00,0.0
2024-05-03 15:00:00+00:00,0.0
2024-05-03 16:00:00+00:00,0.0
2024-05-03 17:00:00+00:00,0.0
2024-05-03 18:00:00+00:00,0.0
2024-05-03 19:00:00+00:00,0.0
2024-05-06 13:00:00+00:00,0.0
2024-05-06 14:00:00+00:00,0.0
2024-05-06 15:00:00+00:00,0.0
2024-05-06 16:00:00+00:00,0.0
2024-05-06 17:00:00+00:00,0.0
2024-05-06 18:00:00+00:00,0.0
2024-05-06 19:00:00+00:00,0.0
2024-05-07 13:00:00+00:00,0.0
2024-05-07 14:00:00+00:00,0.0
2024-05-07 15:00:00+00:00,0.0
2024-05-07 16:00:00+00:00,0.0
2024-05-07 17:00:00+00:00,0.0
2024-05-07 18:00:00+00:00,0.0
2024-05-07 19:00:00+00:00,0.0
2024-05-08 13:00:00+00:00,0.0
2024-05-08 14:00:00+00:00,0.0
2024-05-08 15:00:00+00:00,0.0
2024-05-08 16:00:00+00:00,0.0
2024-05-08 17:00:00+00:00,0.0
2024-05-08 18:00:00+00:00,0.0
2024-05-08 19:00:00+00:00,0.0
2024-05-09 13:00:00+00:00,0.0
2024-05-09 14:00:00+00:00,0.0
2024-05-09 15:00:00+00:00,0.0
2024-05-09 16:00:00+00:00,0.0
2024-05-09 17:00:00+00:00,0.0
2024-05-09 18:00:00+00:00,0.0
2024-05-09 19:00:00+00:00,0.0
2024-05-10 13:00:00+00:00,0.0
2024-05-10 14:00:00+00:00,0.0
2024-05-10 15:00:00+00:00,0.0
2024-05-10 16:00:00+00:00,0.0
2024-05-10 17:00:00+00:00,0.0
2024-05-10 18:00:00+00:00,0.0
2024-05-10 19:00:00+00:00,0.0
2024-05-13 13:00:00+00:00,0.0
2024-05-13 14:00:00+00:00,0.0
2024-05-13 15:00:00+00:00,0.0
2024-05-13 16:00:00+00:00,0.0
2024-05-13 17:00:00+00:00,0.0
2024-05-13 18:00:00+00:00,0.0
2024-05-13 19:00:00+00:00,0.0
2024-05-14 13:00:00+00:00,0.0
2024-05-14 14:00:00+00:00,0.0
2024-05-14 15:00:00+00:00,0.0
2024-05-14 16:00:00+00:00,0.0
2024-05-14 17:00:00+00:00,0.0
2024-05-14 18:00:00+00:00,0.0
2024-05-14 19:00:00+00:00,0.0
2024-05-15 13:00:00+00:00,0.0
2024-05-15 14:00:00+00:00,0.0
2024-05-15 15:00:00+00:00,0.0
2024-05-15 16:00:00+00:00,0.0
2024-05-15 17:00:00+00:00,0.0
2024-05-15 18:00:00+00:00,0.0
2024-05-15 19:00:00+00:00,0.0
2024-05-16 13:00:00+00:00,0.0
2024-05-16 14:00:00+00:00,0.0
2024-05-16 15:00:00+00:00,0.0
2024-05-16 16:00:00+00:00,0.0
2024-05-16 17:00:00+00:00,0.0
2024-05-16 18:00:00+00:00,0.0
2024-05-16 19:00:00+00:00,0.0
2024-05-17 13:00:00+00:00,0.0
2024-05-17 14:00:00+00:00,0.0
2024-05-17 15:00:00+00:00,0.0
2024-05-17 16:00:00+00:00,0.0
2024-05-17 17:00:00+00:00,0.0
2024-05-17 18:00:00+00:00,0.0
2024-05-17 19:00:00+00:00,0.0
2024-05-20 13:00:00+00:00,0.0
2024-05-20 14:00:00+00:00,0.0
2024-05-20 15:00:00+00:00,0.0
2024-05-20 16:00:00+00:00,0.0
2024-05-20 17:00:00+00:00,0.0
2024-05-20 18:00:00+00:00,0.0
2024-05-20 19:00:00+00:00,0.0
2024-05-21 13:00:00+00:00,0.0
2024-05-21 14:00:00+00:00,0.0
2024-05-21 15:00:00+00:00,0.0
2024-05-21 16:00:00+00:00,0.0
2024-05-21 17:00:00+00:00,0.0
2024-05-21 18:00:00+00:00,0.0
2024-05-21 19:00:00+00:00,0.0
2024-05-22 13:00:00+00:00,0.0
2024-05-22 14:00:00+00:00,0.0
2024-05-22 15:00:00+00:00,0.0
2024-05-22 16:00:00+00:00,0.0
2024-05-22 17:00:00+00:00,0.0
2024-05-22 18:00:00+00:00,0.0
2024-05-22 19:00:00+00:00,0.0
2024-05-23 13:00:00+00:00,0.0
2024-05-23 14:00:00+00:00,0.0
2024-05-23 15:00:00+00:00,0.0
2024-05-23 16:00:00+00:00,0.0
2024-05-23 17:00:00+00:00,0.0
2024-05-23 18:00:00+00:00,0.0
2024-05-23 19:00:00+00:00,0.0
2024-05-24 13:00:00+00:00,0.0
2024-05-24 14:00:00+00:00,0.0
2024-05-24 15:00:00+00:00,0.0
2024-05-24 16:00:00+00:00,0.0
2024-05-24 17:00:00+00:00,0.0
2024-05-24 18:00:00+00:00,0.0
2024-05-24 19:00:00+00:00,0.0
2024-05-28 13:00:00+00:00,0.0
2024-05-28 14:00:00+00:00,0.0
2024-05-28 15:00:00+00:00,0.0
2024-05-28 16:00:00+00:00,0.0
2024-05-28 17:00:00+00:00,0.0
2024-05-28 18:00:00+00:00,0.0
2024-05-28 19:00:00+00:00,0.0
2024-05-29 13:00:00+00:00,0.0
2024-05-29 14:00:00+00:00,0.0
2024-05-29 15:00:00+00:00,0.0
2024-05-29 16:00:00+00:00,0.0
2024-05-29 17:00:00+00:00,0.0
2024-05-29 18:00:00+00:00,0.0
2024-05-29 19:00:00+00:00,0.0
2024-05-30 13:00:00+00:00,0.0
2024-05-30 14:00:00+00:00,0.0
2024-05-30 15:00:00+00:00,0.0
2024-05-30 16:00:00+00:00,0.0
2024-05-30 17:00:00+00:00,0.0
2024-05-30 18:00:00+00:00,0.0
2024-05-30 19:00:00+00:00,0.0
2024-05-31 13:00:00+00:00,0.0
2024-05-31 14:00:00+00:00,0.0
2024-05-31 15:00:00+00:00,0.0
2024-05-31 16:00:00+00:00,0.0
2024-05-31 17:00:00+00:00,0.0
2024-05-31 18:00:00+00:00,0.0
2024-05-31 19:00:00+00:00,0.0
2024-06-03 13:00:00+00:00,0.0
2024-06-03 14:00:00+00:00,0.0
2024-06-03 15:00:00+00:00,0.0
2024-06-03 16:00:00+00:00,0.0
2024-06-03 17:00:00+00:00,0.0
2024-06-03 18:00:00+00:00,0.0
2024-06-03 19:00:00+00:00,0.0
2024-06-04 13:00:00+00:00,0.0
2024-06-04 14:00:00+00:00,0.0
2024-06-04 15:00:00+00:00,0.0
2024-06-04 16:00:00+00:00,0.0
2024-06-04 17:00:00+00:00,0.0
2024-06-04 18:00:00+00:00,0.0
2024-06-04 19:00:00+00:00,0.0
2024-06-05 13:00:00+00:00,0.0
2024-06-05 14:00:00+00:00,0.0
2024-06-05 15:00:00+00:00,0.0
2024-06-05 16:00:00+00:00,0.0
2024-06-05 17:00:00+00:00,0.0
2024-06-05 18:00:00+00:00,0.0
2024-06-05 19:00:00+00:00,0.0
2024-06-06 13:00:00+00:00,0.0
2024-06-06 14:00:00+00:00,0.0
2024-06-06 15:00:00+00:00,0.0
2024-06-06 16:00:00+00:00,0.0
2024-06-06 17:00:00+00:00,0.0
2024-06-06 18:00:00+00:00,0.0
2024-06-06 19:00:00+00:00,0.0
2024-06-07 13:00:00+00:00,0.0
2024-06-07 14:00:00+00:00,0.0
2024-06-07 15:00:00+00:00,0.0
2024-06-07 16:00:00+00:00,0.0
2024-06-07 17:00:00+00:00,0.0
2024-06-07 18:00:00+00:00,0.0
2024-06-07 19:00:00+00:00,0.0
2024-06-10 13:00:00+00:00,0.0
2024-06-10 14:00:00+00:00,0.0
2024-06-10 15:00:00+00:00,0.0
2024-06-10 16:00:00+00:00,0.0
2024-06-10 17:00:00+00:00,0.0
2024-06-10 18:00:00+00:00,0.0
2024-06-10 19:00:00+00:00,0.0
2024-06-11 13:00:00+00:00,0.0
2024-06-11 14:00:00+00:00,0.0
2024-06-11 15:00:00+00:00,0.0
2024-06-11 16:00:00+00:00,0.0
2024-06-11 17:00:00+00:00,0.0
2024-06-11 18:00:00+00:00,0.0
2024-06-11 19:00:00+00:00,0.0
2024-06-12 13:00:00+00:00,0.0
2024-06-12 14:00:00+00:00,0.0
2024-06-12 15:00:00+00:00,0.0
2024-06-12 16:00:00+00:00,0.0
2024-06-12 17:00:00+00:00,0.0
2024-06-12 18:00:00+00:00,0.0
2024-06-12 19:00:00+00:00,0.0
2024-06-13 13:00:00+00:00,0.0
2024-06-13 14:00:00+00:00,0.0
2024-06-13 15:00:00+00:00,0.0
2024-06-13 16:00:00+00:00,0.0
2024-06-13 17:00:00+00:00,0.0
2024-06-13 18:00:00+00:00,0.0
2024-06-13 19:00:00+00:00,0.0
2024-06-14 13:00:00+00:00,0.0
2024-06-14 14:00:00+00:00,0.0
2024-06-14 15:00:00+00:00,0.0
2024-06-14 16:00:00+00:00,0.0
2024-06-14 17:00:00+00:00,0.0
2024-06-14 18:00:00+00:00,0.0
2024-06-14 19:00:00+00:00,0.0
2024-06-17 13:00:00+00:00,0.0
2024-06-17 14:00:00+00:00,0.0
2024-06-17 15:00:00+00:00,0.0
2024-06-17 16:00:00+00:00,0.0
2024-06-17 17:00:00+00:00,0.0
2024-06-17 18:00:00+00:00,0.0
2024-06-17 19:00:00+00:00,0.0
2024-06-18 13:00:00+00:00,0.0
2024-06-18 14:00:00+00:00,0.0
2024-06-18 15:00:00+00:00,0.0
2024-06-18 16:00:00+00:00,0.0
2024-06-18 17:00:00+00:00,0.0
2024-06-18 18:00:00+00:00,0.0
2024-06-18 19:00:00+00:00,0.0
2024-06-20 13:00:00+00:00,0.0
2024-06-20 14:00:00+00:00,0.0
2024-06-20 15:00:00+00:00,0.0
2024-06-20 16:00:00+00:00,0.0
2024-06-20 17:00:00+00:00,0.0
2024-06-20 18:00:00+00:00,0.0
2024-06-20 19:00:00+00:00,0.0
2024-06-21 13:00:00+00:00,0.0
2024-06-21 14:00:00+00:00,0.0
2024-06-21 15:00:00+00:00,0.0
2024-06-21 16:00:00+00:00,0.0
2024-06-21 17:00:00+00:00,0.0
2024-06-21 18:00:00+00:00,0.0
2024-06-21 19:00:00+00:00,0.0
2024-06-24 13:00:00+00:00,0.0
2024-06-24 14:00:00+00:00,0.0
2024-06-24 15:00:00+00:00,0.0
2024-06-24 16:00:00+00:00,0.0
2024-06-24 17:00:00+00:00,0.0
2024-06-24 18:00:00+00:00,0.0
2024-06-24 19:00:00+00:00,0.0
2024-06-25 13:00:00+00:00,0.0
2024-06-25 14:00:00+00:00,0.0
2024-06-25 15:00:00+00:00,0.0
2024-06-25 16:00:00+00:00,0.0
2024-06-25 17:00:00+00:00,0.0
2024-06-25 18:00:00+00:00,0.0
2024-06-25 19:00:00+00:00,0.0
2024-06-26 13:00:00+00:00,0.0
2024-06-26 14:00:00+00:00,0.0
2024-06-26 15:00:00+00:00,0.0
2024-06-26 16:00:00+00:00,0.0
2024-06-26 17:00:00+00:00,0.0
2024-06-26 18:00:00+00:00,0.0
2024-06-26 19:00:00+00:00,0.0
2024-06-27 13:00:00+00:00,0.0
2024-06-27 14:00:00+00:00,0.0
2024-06-27 15:00:00+00:00,0.0
2024-06-27 16:00:00+00:00,0.0
2024-06-27 17:00:00+00:00,0.0
2024-06-27 18:00:00+00:00,0.0
2024-06-27 19:00:00+00:00,0.0
2024-06-28 13:00:00+00:00,0.0
2024-06-28 14:00:00+00:00,0.0
2024-06-28 15:00:00+00:00,0.0
2024-06-28 16:00:00+00:00,0.0
2024-06-28 17:00:00+00:00,0.0
2024-06-28 18:00:00+00:00,0.0
2024-06-28 19:00:00+00:00,0.0
2024-07-01 13:00:00+00:00,0.0
2024-07-01 14:00:00+00:00,0.0
2024-07-01 15:00:00+00:00,0.0
2024-07-01 16:00:00+00:00,0.0
2024-07-01 17:00:00+00:00,0.0
2024-07-01 18:00:00+00:00,0.0
2024-07-01 19:00:00+00:00,0.0
2024-07-02 13:00:00+00:00,0.0
2024-07-02 14:00:00+00:00,0.0
2024-07-02 15:00:00+00:00,0.0
2024-07-02 16:00:00+00:00,0.0
2024-07-02 17:00:00+00:00,0.0
2024-07-02 18:00:00+00:00,0.0
2024-07-02 19:00:00+00:00,0.0
2024-07-03 13:00:00+00:00,0.0
2024-07-03 14:00:00+00:00,0.0
2024-07-03 15:00:00+00:00,0.0
2024-07-05 13:00:00+00:00,0.0
2024-07-05 14:00:00+00:00,0.0
2024-07-05 15:00:00+00:00,0.0
2024-07-05 16:00:00+00:00,0.0
2024-07-05 17:00:00+00:00,0.0
2024-07-05 18:00:00+00:00,0.0
2024-07-05 19:00:00+00:00,0.0
2024-07-08 13:00:00+00:00,0.0
2024-07-08 14:00:00+00:00,0.0
2024-07-08 15:00:00+00:00,0.0
2024-07-08 16:00:00+00:00,0.0
2024-07-08 17:00:00+00:00,0.0
2024-07-08 18:00:00+00:00,0.0
2024-07-08 19:00:00+00:00,0.0
2024-07-09 13:00:00+00:00,0.0
2024-07-09 14:00:00+00:00,0.0
2024-07-09 15:00:00+00:00,0.0
2024-07-09 16:00:00+00:00,0.0
2024-07-09 17:00:00+00:00,0.0
2024-07-09 18:00:00+00:00,0.0
2024-07-09 19:00:00+00:00,0.0
2024-07-10 13:00:00+00:00,0.0
2024-07-10 14:00:00+00:00,0.0
2024-07-10 15:00:00+00:00,0.0
2024-07-10 16:00:00+00:00,0.0
2024-07-10 17:00:00+00:00,0.0
2024-07-10 18:00:00+00:00,0.0
2024-07-10 19:00:00+00:00,0.0
2024-07-11 13:00:00+00:00,0.0
2024-07-11 14:00:00+00:00,0.0
2024-07-11 15:00:00+00:00,0.0
2024-07-11 16:00:00+00:00,0.0
2024-07-11 17:00:00+00:00,0.0
2024-07-11 18:00:00+00:00,0.0
2024-07-11 19:00:00+00:00,0.0
2024-07-12 13:00:00+00:00,0.0
2024-07-12 14:00:00+00:00,0.0
2024-07-12 15:00:00+00:00,0.0
2024-07-12 16:00:00+00:00,0.0
2024-07-12 17:00:00+00:00,0.0
2024-07-12 18:00:00+00:00,0.0
2024-07-12 19:00:00+00:00,0.0
2024-07-15 13:00:00+00:00,0.0
2024-07-15 14:00:00+00:00,0.0
2024-07-15 15:00:00+00:00,0.0
2024-07-15 16:00:00+00:00,0.0
2024-07-15 17:00:00+00:00,0.0
2024-07-15 18:00:00+00:00,0.0
2024-07-15 19:00:00+00:00,0.0
2024-07-16 13:00:00+00:00,0.0
2024-07-16 14:00:00+00:00,0.0
2024-07-16 15:00:00+00:00,0.0
2024-07-16 16:00:00+00:00,0.0
2024-07-16 17:00:00+00:00,0.0
2024-07-16 18:00:00+00:00,0.0
2024-07-16 19:00:00+00:00,0.0
2024-07-17 13:00:00+00:00,0.0
2024-07-17 14:00:00+00:00,0.0
2024-07-17 15:00:00+00:00,0.0
2024-07-17 16:00:00+00:00,0.0
2024-07-17 17:00:00+00:00,0.0
2024-07-17 18:00:00+00:00,0.0
2024-07-17 19:00:00+00:00,0.0
2024-07-18 13:00:00+00:00,0.0
2024-07-18 14:00:00+00:00,0.0
2024-07-18 15:00:00+00:00,0.0
2024-07-18 16:00:00+00:00,0.0
2024-07-18 17:00:00+00:00,0.0
2024-07-18 18:00:00+00:00,0.0
2024-07-18 19:00:00+00:00,0.0
2024-07-19 13:00:00+00:00,0.0
2024-07-19 14:00:00+00:00,0.0
2024-07-19 15:00:00+00:00,0.0
2024-07-19 16:00:00+00:00,0.0
2024-07-19 17:00:00+00:00,0.0
2024-07-19 18:00:00+00:00,0.0
2024-07-19 19:00:00+00:00,0.0
2024-07-22 13:00:00+00:00,0.0
2024-07-22 14:00:00+00:00,0.0
2024-07-22 15:00:00+00:00,0.0
2024-07-22 16:00:00+00:00,0.0
2024-07-22 17:00:00+00:00,0.0
2024-07-22 18:00:00+00:00,0.0
2024-07-22 19:00:00+00:00,0.0
2024-07-23 13:00:00+00:00,0.0
2024-07-23 14:00:00+00:00,0.0
2024-07-23 15:00:00+00:00,0.0
2024-07-23 16:00:00+00:00,0.0
2024-07-23 17:00:00+00:00,0.0
2024-07-23 18:00:00+00:00,0.0
2024-07-23 19:00:00+00:00,0.0
2024-07-24 13:00:00+00:00,0.0
2024-07-24 14:00:00+00:00,0.0
2024-07-24 15:00:00+00:00,0.0
2024-07-24 16:00:00+00:00,0.0
2024-07-24 17:00:00+00:00,0.0
2024-07-24 18:00:00+00:00,0.0
2024-07-24 19:00:00+00:00,0.0
2024-07-25 13:00:00+00:00,0.0
2024-07-25 14:00:00+00:00,0.0
2024-07-25 15:00:00+00:00,0.0
2024-07-25 16:00:00+00:00,0.0
2024-07-25 17:00:00+00:00,0.0
2024-07-25 18:00:00+00:00,0.0
2024-07-25 19:00:00+00:00,0.0
2024-07-26 13:00:00+00:00,0.0
2024-07-26 14:00:00+00:00,0.0
2024-07-26 15:00:00+00:00,0.0
2024-07-26 16:00:00+00:00,0.0
2024-07-26 17:00:00+00:00,0.0
2024-07-26 18:00:00+00:00,0.0
2024-07-26 19:00:00+00:00,0.0
2024-07-29 13:00:00+00:00,0.0
2024-07-29 14:00:00+00:00,0.0
2024-07-29 15:00:00+00:00,0.0
2024-07-29 16:00:00+00:00,0.0
2024-07-29 17:00:00+00:00,0.0
2024-07-29 18:00:00+00:00,0.0
2024-07-29 19:00:00+00:00,0.0
2024-07-30 13:00:00+00:00,0.0
2024-07-30 14:00:00+00:00,0.0
2024-07-30 15:00:00+00:00,0.0
2024-07-30 16:00:00+00:00,0.0
2024-07-30 17:00:00+00:00,0.0
2024-07-30 18:00:00+00:00,0.0
2024-07-30 19:00:00+00:00,0.0
2024-07-31 13:00:00+00:00,0.0
2024-07-31 14:00:00+00:00,0.0
2024-07-31 15:00:00+00:00,0.0
2024-07-31 16:00:00+00:00,0.0
2024-07-31 17:00:00+00:00,0.0
2024-07-31 18:00:00+00:00,0.0
2024-07-31 19:00:00+00:00,0.0
2024-08-01 13:00:00+00:00,0.0
2024-08-01 14:00:00+00:00,0.0
2024-08-01 15:00:00+00:00,0.0
2024-08-01 16:00:00+00:00,0.0
2024-08-01 17:00:00+00:00,0.0
2024-08-01 18:00:00+00:00,0.0
2024-08-01 19:00:00+00:00,0.0
2024-08-02 13:00:00+00:00,0.0
2024-08-02 14:00:00+00:00,0.0
2024-08-02 15:00:00+00:00,0.0
2024-08-02 16:00:00+00:00,0.0
2024-08-02 17:00:00+00:00,0.0
2024-08-02 18:00:00+00:00,0.0
2024-08-02 19:00:00+00:00,0.0
2024-08-05 13:00:00+00:00,0.0
2024-08-05 14:00:00+00:00,0.0
2024-08-05 15:00:00+00:00,0.0
2024-08-05 16:00:00+00:00,0.0
2024-08-05 17:00:00+00:00,0.0
2024-08-05 18:00:00+00:00,0.0
2024-08-05 19:00:00+00:00,0.0
2024-08-06 13:00:00+00:00,-107.92727331548038
2024-08-06 14:00:00+00:00,-84.51002925972305
2024-08-06 15:00:00+00:00,-60.1931465169523
2024-08-06 16:00:00+00:00,-33.76732081738725
2024-08-06 17:00:00+00:00,-38.429746627316966
2024-08-06 18:00:00+00:00,-56.05492204336283
2024-08-06 19:00:00+00:00,-36.17880554232099
2024-08-07 13:00:00+00:00,47.83931372471983
2024-08-07 14:00:00+00:00,63.200846761758285
2024-08-07 15:00:00+00:00,70.07720763641981
2024-08-07 16:00:00+00:00,59.77615160831503
2024-08-07 17:00:00+00:00,56.88400236577775
2024-08-07 18:00:00+00:00,63.721377959402155
2024-08-07 19:00:00+00:00,60.98759827777545
2024-08-08 13:00:00+00:00,31.77743985166797
2024-08-08 14:00:00+00:00,21.98780795679213
2024-08-08 15:00:00+00:00,34.32786323775686
2024-08-08 16:00:00+00:00,42.36696776477727
2024-08-08 17:00:00+00:00,56.177741402942004
2024-08-08 18:00:00+00:00,57.072900472339946
2024-08-08 19:00:00+00:00,33.31110556872184
2024-08-09 13:00:00+00:00,75.13113235302534
2024-08-09 14:00:00+00:00,78.5752136560986
2024-08-09 15:00:00+00:00,82.13427095815268
2024-08-09 16:00:00+00:00,84.39703193815798
2024-08-09 17:00:00+00:00,66.55410215159908
2024-08-09 18:00:00+00:00,75.80832348677518
2024-08-09 19:00:00+00:00,76.78996083172257
2024-08-12 13:00:00+00:00,67.03307579127922
2024-08-12 14:00:00+00:00,81.82996639200792
2024-08-12 15:00:00+00:00,80.14168848254836
2024-08-12 16:00:00+00:00,78.39168854555004
2024-08-12 17:00:00+00:00,69.45440115044822
2024-08-12 18:00:00+00:00,64.70121226560669
2024-08-12 19:00:00+00:00,52.01066066540023
2024-08-13 13:00:00+00:00,62.99724950418867
2024-08-13 14:00:00+00:00,91.16017902848603
2024-08-13 15:00:00+00:00,89.26451082458892
2024-08-13 16:00:00+00:00,104.56084651364682
2024-08-13 17:00:00+00:00,108.21108776142508
2024-08-13 18:00:00+00:00,119.86835575770078
2024-08-13 19:00:00+00:00,134.18091170212992
2024-08-14 13:00:00+00:00,167.58675746353288
2024-08-14 14:00:00+00:00,158.11111161914735
2024-08-14 15:00:00+00:00,153.15348431847056
2024-08-14 16:00:00+00:00,160.11785120769545
2024-08-14 17:00:00+00:00,157.72121017645597
2024-08-14 18:00:00+00:00,164.10887967537187
2024-08-14 19:00:00+00:00,162.7307188704348
2024-08-15 13:00:00+00:00,172.8534250503649
2024-08-15 14:00:00+00:00,185.29022115807877
2024-08-15 15:00:00+00:00,185.29022115807877
2024-08-15 16:00:00+00:00,185.29022115807877
2024-08-15 17:00:00+00:00,185.29022115807877
2024-08-15 18:00:00+00:00,185.29022115807877
2024-08-15 19:00:00+00:00,185.29022115807877
2024-08-16 13:00:00+00:00,185.29022115807877
2024-08-16 14:00:00+00:00,185.29022115807877
2024-08-16 15:00:00+00:00,185.29022115807877
2024-08-16 16:00:00+00:00,185.29022115807877
2024-08-16 17:00:00+00:00,185.29022115807877
2024-08-16 18:00:00+00:00,185.29022115807877
2024-08-16 19:00:00+00:00,185.29022115807877
2024-08-19 13:00:00+00:00,185.29022115807877
2024-08-19 14:00:00+00:00,185.29022115807877
2024-08-19 15:00:00+00:00,185.29022115807877
2024-08-19 16:00:00+00:00,185.29022115807877
2024-08-19 17:00:00+00:00,185.29022115807877
2024-08-19 18:00:00+00:00,185.29022115807877
2024-08-19 19:00:00+00:00,185.29022115807877
2024-08-20 13:00:00+00:00,185.29022115807877
2024-08-20 14:00:00+00:00,185.29022115807877
2024-08-20 15:00:00+00:00,185.29022115807877
2024-08-20 16:00:00+00:00,185.29022115807877
2024-08-20 17:00:00+00:00,185.29022115807877
2024-08-20 18:00:00+00:00,185.29022115807877
2024-08-20 19:00:00+00:00,185.29022115807877
2024-08-21 13:00:00+00:00,185.29022115807877
2024-08-21 14:00:00+00:00,185.29022115807877
2024-08-21 15:00:00+00:00,185.29022115807877
2024-08-21 16:00:00+00:00,185.29022115807877
2024-08-21 17:00:00+00:00,185.29022115807877
2024-08-21 18:00:00+00:00,185.29022115807877
2024-08-21 19:00:00+00:00,185.29022115807877
2024-08-22 13:00:00+00:00,185.29022115807877
2024-08-22 14:00:00+00:00,185.29022115807877
2024-08-22 15:00:00+00:00,185.29022115807877
2024-08-22 16:00:00+00:00,185.29022115807877
2024-08-22 17:00:00+00:00,185.29022115807877
2024-08-22 18:00:00+00:00,185.29022115807877
2024-08-22 19:00:00+00:00,185.29022115807877
2024-08-23 13:00:00+00:00,185.29022115807877
2024-08-23 14:00:00+00:00,185.29022115807877
2024-08-23 15:00:00+00:00,185.29022115807877
2024-08-23 16:00:00+00:00,185.29022115807877
2024-08-23 17:00:00+00:00,185.29022115807877
2024-08-23 18:00:00+00:00,185.29022115807877
2024-08-23 19:00:00+00:00,185.29022115807877
2024-08-26 13:00:00+00:00,185.29022115807877
2024-08-26 14:00:00+00:00,185.29022115807877
2024-08-26 15:00:00+00:00,185.29022115807877
2024-08-26 16:00:00+00:00,185.29022115807877
2024-08-26 17:00:00+00:00,185.29022115807877
2024-08-26 18:00:00+00:00,185.29022115807877
2024-08-26 19:00:00+00:00,185.29022115807877
2024-08-27 13:00:00+00:00,185.29022115807877
2024-08-27 14:00:00+00:00,185.29022115807877
2024-08-27 15:00:00+00:00,185.29022115807877
2024-08-27 16:00:00+00:00,185.29022115807877
2024-08-27 17:00:00+00:00,185.29022115807877
2024-08-27 18:00:00+00:00,185.29022115807877
2024-08-27 19:00:00+00:00,185.29022115807877
2024-08-28 13:00:00+00:00,185.29022115807877
2024-08-28 14:00:00+00:00,185.29022115807877
2024-08-28 15:00:00+00:00,185.29022115807877
2024-08-28 16:00:00+00:00,185.29022115807877
2024-08-28 17:00:00+00:00,185.29022115807877
2024-08-28 18:00:00+00:00,185.29022115807877
2024-08-28 19:00:00+00:00,185.29022115807877
2024-08-29 13:00:00+00:00,185.29022115807877
2024-08-29 14:00:00+00:00,185.29022115807877
2024-08-29 15:00:00+00:00,185.29022115807877
2024-08-29 16:00:00+00:00,185.29022115807877
2024-08-29 17:00:00+00:00,185.29022115807877
2024-08-29 18:00:00+00:00,185.29022115807877
2024-08-29 19:00:00+00:00,185.29022115807877
2024-08-30 13:00:00+00:00,185.29022115807877
2024-08-30 14:00:00+00:00,185.29022115807877
2024-08-30 15:00:00+00:00,185.29022115807877
2024-08-30 16:00:00+00:00,185.29022115807877
2024-08-30 17:00:00+00:00,185.29022115807877
2024-08-30 18:00:00+00:00,185.29022115807877
2024-08-30 19:00:00+00:00,185.29022115807877
2024-09-03 13:00:00+00:00,185.29022115807877
2024-09-03 14:00:00+00:00,185.29022115807877
2024-09-03 15:00:00+00:00,185.29022115807877
2024-09-03 16:00:00+00:00,185.29022115807877
2024-09-03 17:00:00+00:00,185.29022115807877
2024-09-03 18:00:00+00:00,185.29022115807877
2024-09-03 19:00:00+00:00,185.29022115807877
2024-09-04 13:00:00+00:00,185.29022115807877
2024-09-04 14:00:00+00:00,185.29022115807877
2024-09-04 15:00:00+00:00,185.29022115807877
2024-09-04 16:00:00+00:00,185.29022115807877
2024-09-04 17:00:00+00:00,185.29022115807877
2024-09-04 18:00:00+00:00,185.29022115807877
2024-09-04 19:00:00+00:00,185.29022115807877
2024-09-05 13:00:00+00:00,185.29022115807877
2024-09-05 14:00:00+00:00,185.29022115807877
2024-09-05 15:00:00+00:00,185.29022115807877
2024-09-05 16:00:00+00:00,185.29022115807877
2024-09-05 17:00:00+00:00,185.29022115807877
2024-09-05 18:00:00+00:00,185.29022115807877
2024-09-05 19:00:00+00:00,185.29022115807877
2024-09-06 13:00:00+00:00,185.29022115807877
2024-09-06 14:00:00+00:00,185.29022115807877
2024-09-06 15:00:00+00:00,185.29022115807877
2024-09-06 16:00:00+00:00,185.29022115807877
2024-09-06 17:00:00+00:00,185.29022115807877
2024-09-06 18:00:00+00:00,185.29022115807877
2024-09-06 19:00:00+00:00,185.29022115807877
2024-09-09 13:00:00+00:00,185.29022115807877
2024-09-09 14:00:00+00:00,185.29022115807877
2024-09-09 15:00:00+00:00,185.29022115807877
2024-09-09 16:00:00+00:00,185.29022115807877
2024-09-09 17:00:00+00:00,185.29022115807877
2024-09-09 18:00:00+00:00,185.29022115807877
2024-09-09 19:00:00+00:00,185.29022115807877
2024-09-10 13:00:00+00:00,185.29022115807877
2024-09-10 14:00:00+00:00,185.29022115807877
2024-09-10 15:00:00+00:00,185.29022115807877
2024-09-10 16:00:00+00:00,185.29022115807877
2024-09-10 17:00:00+00:00,185.29022115807877
2024-09-10 18:00:00+00:00,185.29022115807877
2024-09-10 19:00:00+00:00,185.29022115807877
2024-09-11 13:00:00+00:00,185.29022115807877
2024-09-11 14:00:00+00:00,185.29022115807877
2024-09-11 15:00:00+00:00,185.29022115807877
2024-09-11 16:00:00+00:00,185.29022115807877
2024-09-11 17:00:00+00:00,185.29022115807877
2024-09-11 18:00:00+00:00,185.29022115807877
2024-09-11 19:00:00+00:00,185.29022115807877
2024-09-12 13:00:00+00:00,185.29022115807877
2024-09-12 14:00:00+00:00,185.29022115807877
2024-09-12 15:00:00+00:00,185.29022115807877
2024-09-12 16:00:00+00:00,185.29022115807877
2024-09-12 17:00:00+00:00,185.29022115807877
2024-09-12 18:00:00+00:00,185.29022115807877
2024-09-12 19:00:00+00:00,185.29022115807877
2024-09-13 13:00:00+00:00,185.29022115807877
2024-09-13 14:00:00+00:00,185.29022115807877
2024-09-13 15:00:00+00:00,185.29022115807877
2024-09-13 16:00:00+00:00,185.29022115807877
2024-09-13 17:00:00+00:00,185.29022115807877
2024-09-13 18:00:00+00:00,185.29022115807877
2024-09-13 19:00:00+00:00,185.29022115807877
2024-09-16 13:00:00+00:00,185.29022115807877
2024-09-16 14:00:00+00:00,185.29022115807877
2024-09-16 15:00:00+00:00,185.29022115807877
2024-09-16 16:00:00+00:00,185.29022115807877
2024-09-16 17:00:00+00:00,185.29022115807877
2024-09-16 18:00:00+00:00,185.29022115807877
2024-09-16 19:00:00+00:00,185.29022115807877
2024-09-17 13:00:00+00:00,185.29022115807877
2024-09-17 14:00:00+00:00,185.29022115807877
2024-09-17 15:00:00+00:00,185.29022115807877
2024-09-17 16:00:00+00:00,185.29022115807877
2024-09-17 17:00:00+00:00,185.29022115807877
2024-09-17 18:00:00+00:00,185.29022115807877
2024-09-17 19:00:00+00:00,185.29022115807877
2024-09-18 13:00:00+00:00,185.29022115807877
2024-09-18 14:00:00+00:00,185.29022115807877
2024-09-18 15:00:00+00:00,185.29022115807877
2024-09-18 16:00:00+00:00,185.29022115807877
2024-09-18 17:00:00+00:00,185.29022115807877
2024-09-18 18:00:00+00:00,185.29022115807877
2024-09-18 19:00:00+00:00,185.29022115807877
2024-09-19 13:00:00+00:00,185.29022115807877
2024-09-19 14:00:00+00:00,185.29022115807877
2024-09-19 15:00:00+00:00,185.29022115807877
2024-09-19 16:00:00+00:00,185.29022115807877
2024-09-19 17:00:00+00:00,185.29022115807877
2024-09-19 18:00:00+00:00,185.29022115807877
2024-09-19 19:00:00+00:00,185.29022115807877
2024-09-20 13:00:00+00:00,185.29022115807877
2024-09-20 14:00:00+00:00,185.29022115807877
2024-09-20 15:00:00+00:00,185.29022115807877
2024-09-20 16:00:00+00:00,185.29022115807877
2024-09-20 17:00:00+00:00,185.29022115807877
2024-09-20 18:00:00+00:00,185.29022115807877
2024-09-20 19:00:00+00:00,185.29022115807877
2024-09-23 13:00:00+00:00,185.29022115807877
2024-09-23 14:00:00+00:00,185.29022115807877
2024-09-23 15:00:00+00:00,185.29022115807877
2024-09-23 16:00:00+00:00,185.29022115807877
2024-09-23 17:00:00+00:00,185.29022115807877
2024-09-23 18:00:00+00:00,185.29022115807877
2024-09-23 19:00:00+00:00,185.29022115807877
2024-09-24 13:00:00+00:00,185.29022115807877
2024-09-24 14:00:00+00:00,185.29022115807877
2024-09-24 15:00:00+00:00,185.29022115807877
2024-09-24 16:00:00+00:00,185.29022115807877
2024-09-24 17:00:00+00:00,185.29022115807877
2024-09-24 18:00:00+00:00,185.29022115807877
2024-09-24 19:00:00+00:00,185.29022115807877
2024-09-25 13:00:00+00:00,185.29022115807877
2024-09-25 14:00:00+00:00,185.29022115807877
2024-09-25 15:00:00+00:00,185.29022115807877
2024-09-25 16:00:00+00:00,185.29022115807877
2024-09-25 17:00:00+00:00,185.29022115807877
2024-09-25 18:00:00+00:00,185.29022115807877
2024-09-25 19:00:00+00:00,185.29022115807877
2024-09-26 13:00:00+00:00,185.29022115807877
2024-09-26 14:00:00+00:00,185.29022115807877
2024-09-26 15:00:00+00:00,185.29022115807877
2024-09-26 16:00:00+00:00,185.29022115807877
2024-09-26 17:00:00+00:00,185.29022115807877
2024-09-26 18:00:00+00:00,185.29022115807877
2024-09-26 19:00:00+00:00,185.29022115807877
2024-09-27 13:00:00+00:00,185.29022115807877
2024-09-27 14:00:00+00:00,185.29022115807877
2024-09-27 15:00:00+00:00,185.29022115807877
2024-09-27 16:00:00+00:00,185.29022115807877
2024-09-27 17:00:00+00:00,185.29022115807877
2024-09-27 18:00:00+00:00,185.29022115807877
2024-09-27 19:00:00+00:00,185.29022115807877
2024-09-30 13:00:00+00:00,185.29022115807877
2024-09-30 14:00:00+00:00,185.29022115807877
2024-09-30 15:00:00+00:00,185.29022115807877
2024-09-30 16:00:00+00:00,185.29022115807877
2024-09-30 17:00:00+00:00,185.29022115807877
2024-09-30 18:00:00+00:00,170.25865283695677
2024-09-30 19:00:00+00:00,165.8282125825658
2024-10-01 13:00:00+00:00,203.87279213604648
2024-10-01 14:00:00+00:00,186.20983944336777
2024-10-01 15:00:00+00:00,166.53103004385102
2024-10-01 16:00:00+00:00,180.74317154214336
2024-10-01 17:00:00+00:00,166.70176723026682
2024-10-01 18:00:00+00:00,155.4870694891941
2024-10-01 19:00:00+00:00,174.18111552900007
2024-10-02 13:00:00+00:00,275.7473439743774
2024-10-02 14:00:00+00:00,288.2847509984634
2024-10-02 15:00:00+00:00,310.85125955040826
2024-10-02 16:00:00+00:00,312.31337616467994
2024-10-02 17:00:00+00:00,329.9260828891878
2024-10-02 18:00:00+00:00,301.6546428563801
2024-10-02 19:00:00+00:00,300.19787157254024
2024-10-03 13:00:00+00:00,337.71173027957764
2024-10-03 14:00:00+00:00,331.3617429241071
2024-10-03 15:00:00+00:00,323.0661441118723
2024-10-03 16:00:00+00:00,310.9687308044334
2024-10-03 17:00:00+00:00,313.16031788791946
2024-10-03 18:00:00+00:00,290.29301191985957
2024-10-03 19:00:00+00:00,313.38467378041173
2024-10-04 13:00:00+00:00,397.2588645072782
2024-10-04 14:00:00+00:00,362.2658866734292
2024-10-04 15:00:00+00:00,350.7585865695633
2024-10-04 16:00:00+00:00,352.7357034487438
2024-10-04 17:00:00+00:00,359.9488151814663
2024-10-04 18:00:00+00:00,337.3092378438043
2024-10-04 19:00:00+00:00,324.6038519401359
2024-10-07 13:00:00+00:00,354.38781153398105
2024-10-07 14:00:00+00:00,346.37991267687823
2024-10-07 15:00:00+00:00,374.3941951290885
2024-10-07 16:00:00+00:00,390.60157211133924
2024-10-07 17:00:00+00:00,389.4333110087945
2024-10-07 18:00:00+00:00,376.10510339582015
2024-10-07 19:00:00+00:00,385.5925963543091
2024-10-08 13:00:00+00:00,337.0412244803575
2024-10-08 14:00:00+00:00,350.76196329398334
2024-10-08 15:00:00+00:00,352.4651275735545
2024-10-08 16:00:00+00:00,356.2145270794848
2024-10-08 17:00:00+00:00,352.40596710846944
2024-10-08 18:00:00+00:00,355.4687828399586
2024-10-08 19:00:00+00:00,354.7619387597137
2024-10-09 13:00:00+00:00,301.7578536495734
2024-10-09 14:00:00+00:00,320.1774383047047
2024-10-09 15:00:00+00:00,315.1867095439985
2024-10-09 16:00:00+00:00,309.42362361930464
2024-10-09 17:00:00+00:00,315.02786673524895
2024-10-09 18:00:00+00:00,317.9820862596453
2024-10-09 19:00:00+00:00,322.8245077943284
2024-10-10 13:00:00+00:00,326.03144778777187
2024-10-10 14:00:00+00:00,332.6534751256489
2024-10-10 15:00:00+00:00,332.6653695033152
2024-10-10 16:00:00+00:00,331.31246352720854
2024-10-10 17:00:00+00:00,325.23208484216923
2024-10-10 18:00:00+00:00,308.0818017947011
2024-10-10 19:00:00+00:00,334.21643644994816
2024-10-11 13:00:00+00:00,301.41033871481636
2024-10-11 14:00:00+00:00,313.1312987968247
2024-10-11 15:00:00+00:00,307.45100701441123
2024-10-11 16:00:00+00:00,298.5385211090327
2024-10-11 17:00:00+00:00,311.76867369035153
2024-10-11 18:00:00+00:00,313.18708715749
2024-10-11 19:00:00+00:00,310.48504016685
2024-10-14 13:00:00+00:00,321.9921793056066
2024-10-14 14:00:00+00:00,315.5556077009405
2024-10-14 15:00:00+00:00,332.8613608192526
2024-10-14 16:00:00+00:00,321.2092865588926
2024-10-14 17:00:00+00:00,315.28220892359417
2024-10-14 18:00:00+00:00,313.91341325745265
2024-10-14 19:00:00+00:00,315.0244946308292
2024-10-15 13:00:00+00:00,56.326263672704215
2024-10-15 14:00:00+00:00,62.871039260795385
2024-10-15 15:00:00+00:00,57.44508903324124
2024-10-15 16:00:00+00:00,55.976423371735095
2024-10-15 17:00:00+00:00,27.970867131253055
2024-10-15 18:00:00+00:00,62.40981866707273
2024-10-15 19:00:00+00:00,66.58591736660401
2024-10-16 13:00:00+00:00,97.17425801780685
2024-10-16 14:00:00+00:00,68.13063169457928
2024-10-16 15:00:00+00:00,47.247223544978624
2024-10-16 16:00:00+00:00,45.85062001444967
2024-10-16 17:00:00+00:00,25.64014536172764
2024-10-16 18:00:00+00:00,32.357413402644575
2024-10-16 19:00:00+00:00,33.70458119116582
2024-10-17 13:00:00+00:00,84.74662536260763
2024-10-17 14:00:00+00:00,93.72144804239971
2024-10-17 15:00:00+00:00,71.56455532106678
2024-10-17 16:00:00+00:00,77.84883316421815
2024-10-17 17:00:00+00:00,78.44545931807221
2024-10-17 18:00:00+00:00,86.2089384054554
2024-10-17 19:00:00+00:00,98.78721881483514
2024-10-18 13:00:00+00:00,113.18264079903864
2024-10-18 14:00:00+00:00,108.26181010743237
2024-10-18 15:00:00+00:00,101.93344248619064
2024-10-18 16:00:00+00:00,97.58025398158591
2024-10-18 17:00:00+00:00,81.70426636549873
2024-10-18 18:00:00+00:00,91.19629442825601
2024-10-18 19:00:00+00:00,100.84123068360095
2024-10-21 13:00:00+00:00,96.8677580297012
2024-10-21 14:00:00+00:00,97.03860532874819
2024-10-21 15:00:00+00:00,127.4482101675423
2024-10-21 16:00:00+00:00,130.07858788435837
2024-10-21 17:00:00+00:00,128.72987046503138
2024-10-21 18:00:00+00:00,125.33902436918302
2024-10-21 19:00:00+00:00,125.62335158640977
2024-10-22 13:00:00+00:00,121.65041823305774
2024-10-22 14:00:00+00:00,142.89175976895643
2024-10-22 15:00:00+00:00,134.45540943267326
2024-10-22 16:00:00+00:00,130.81123402941606
2024-10-22 17:00:00+00:00,130.84323108406906
2024-10-22 18:00:00+00:00,131.42912777729936
2024-10-22 19:00:00+00:00,132.51897413020998
2024-10-23 13:00:00+00:00,142.2532529415835
2024-10-23 14:00:00+00:00,134.28587469608826
2024-10-23 15:00:00+00:00,116.35668607088431
2024-10-23 16:00:00+00:00,108.1276069971318
2024-10-23 17:00:00+00:00,106.17726400752206
2024-10-23 18:00:00+00:00,114.98669546481679
2024-10-23 19:00:00+00:00,117.06907191013748
2024-10-24 13:00:00+00:00,155.48258907054245
2024-10-24 14:00:00+00:00,151.2975758740969
2024-10-24 15:00:00+00:00,135.80141422134588
2024-10-24 16:00:00+00:00,149.36350665479898
2024-10-24 17:00:00+00:00,141.73186459454993
2024-10-24 18:00:00+00:00,148.01614243770058
2024-10-24 19:00:00+00:00,153.779031933818
2024-10-25 13:00:00+00:00,195.78310579140333
2024-10-25 14:00:00+00:00,173.66174049144644
2024-10-25 15:00:00+00:00,186.6645510733242
2024-10-25 16:00:00+00:00,203.80086338881387
2024-10-25 17:00:00+00:00,202.25721812692458
2024-10-25 18:00:00+00:00,207.25092676838318
2024-10-25 19:00:00+00:00,201.83868843288425
2024-10-28 13:00:00+00:00,150.98411330413364
2024-10-28 14:00:00+00:00,188.60036762447214
2024-10-28 15:00:00+00:00,180.1247686754649
2024-10-28 16:00:00+00:00,191.58104804846434
2024-10-28 17:00:00+00:00,161.26794861051957
2024-10-28 18:00:00+00:00,183.78839415836237
2024-10-28 19:00:00+00:00,191.15914561651837
2024-10-29 13:00:00+00:00,198.883110113548
2024-10-29 14:00:00+00:00,159.54040628988574
2024-10-29 15:00:00+00:00,167.75240073367667
2024-10-29 16:00:00+00:00,165.95016854151396
2024-10-29 17:00:00+00:00,160.97590997969564
2024-10-29 18:00:00+00:00,163.88406586650473
2024-10-29 19:00:00+00:00,158.7944530491118
2024-10-30 13:00:00+00:00,186.97870760780856
2024-10-30 14:00:00+00:00,192.4270533379716
2024-10-30 15:00:00+00:00,179.9316015286564
2024-10-30 16:00:00+00:00,164.04845043426252
2024-10-30 17:00:00+00:00,163.4410922691049
2024-10-30 18:00:00+00:00,170.392699602148
2024-10-30 19:00:00+00:00,145.78332919523524
2024-10-31 13:00:00+00:00,-13.104881955557119
2024-10-31 14:00:00+00:00,-19.098479962822605
2024-10-31 15:00:00+00:00,-48.17395084821932
2024-10-31 16:00:00+00:00,-48.32173304785709
2024-10-31 17:00:00+00:00,-50.55025963728365
2024-10-31 18:00:00+00:00,0.7574192417675931
2024-10-31 19:00:00+00:00,-20.69681299687472
2024-11-01 13:00:00+00:00,19.844542388037958
2024-11-01 14:00:00+00:00,27.156525604775858
2024-11-01 15:00:00+00:00,21.743476409626794
2024-11-01 16:00:00+00:00,16.922639032174274
2024-11-01 17:00:00+00:00,-5.393413694593953
2024-11-01 18:00:00+00:00,-29.409333623494852
2024-11-01 19:00:00+00:00,-9.156119029268645
2024-11-04 14:00:00+00:00,29.535145157904537
2024-11-04 15:00:00+00:00,9.113341518936448
2024-11-04 16:00:00+00:00,-2.511308957312721
2024-11-04 17:00:00+00:00,-12.30772874800962
2024-11-04 18:00:00+00:00,-11.264350829026313
2024-11-04 19:00:00+00:00,2.260415518612957
2024-11-04 20:00:00+00:00,-11.660855992498828
2024-11-05 14:00:00+00:00,32.914630911908745
2024-11-05 15:00:00+00:00,59.93062436806038
2024-11-05 16:00:00+00:00,39.17342045709133
2024-11-05 17:00:00+00:00,49.18098007405851
2024-11-05 18:00:00+00:00,32.57254210800492
2024-11-05 19:00:00+00:00,46.224395099982374
2024-11-05 20:00:00+00:00,57.53513812646299
2024-11-06 14:00:00+00:00,-270.40724279765544
2024-11-06 15:00:00+00:00,-259.6698983111444
2024-11-06 16:00:00+00:00,-258.5413482275296
2024-11-06 17:00:00+00:00,-238.65863966990156
2024-11-06 18:00:00+00:00,-224.21578966045857
2024-11-06 19:00:00+00:00,-228.79075960662843
2024-11-06 20:00:00+00:00,-232.67753789870144
2024-11-07 14:00:00+00:00,-115.0537999833796
2024-11-07 15:00:00+00:00,-151.3807577343951
2024-11-07 16:00:00+00:00,-135.28438818863668
2024-11-07 17:00:00+00:00,-145.09370901173978
2024-11-07 18:00:00+00:00,-122.77756805183317
2024-11-07 19:00:00+00:00,-125.50464759807613
2024-11-07 20:00:00+00:00,-125.9679596738339
2024-11-08 14:00:00+00:00,-445.99092104350257
2024-11-08 15:00:00+00:00,-480.14099768515587
2024-11-08 16:00:00+00:00,-500.2683224410807
2024-11-08 17:00:00+00:00,-504.293134033838
2024-11-08 18:00:00+00:00,-496.05533689174763
2024-11-08 19:00:00+00:00,-502.719244269658
2024-11-08 20:00:00+00:00,-486.52596389322537
2024-11-11 14:00:00+00:00,-531.2237588967821
2024-11-11 15:00:00+00:00,-499.65441522868906
2024-11-11 16:00:00+00:00,-476.9953878113864
2024-11-11 17:00:00+00:00,-475.11730338133066
2024-11-11 18:00:00+00:00,-479.77845214687153
2024-11-11 19:00:00+00:00,-473.61568474937707
2024-11-11 20:00:00+00:00,-472.2458905718856
2024-11-12 14:00:00+00:00,-657.1381906286517
2024-11-12 15:00:00+00:00,-694.208398258014
2024-11-12 16:00:00+00:00,-688.4452997606492
2024-11-12 17:00:00+00:00,-681.9128365527197
2024-11-12 18:00:00+00:00,-657.8840149579263
2024-11-12 19:00:00+00:00,-661.4918520801588
2024-11-12 20:00:00+00:00,-633.0206958533081
2024-11-13 14:00:00+00:00,-731.2608399427514
2024-11-13 15:00:00+00:00,-693.9510768224025
2024-11-13 16:00:00+00:00,-652.1001932684402
2024-11-13 17:00:00+00:00,-618.0834632784465
2024-11-13 18:00:00+00:00,-563.124459357474
2024-11-13 19:00:00+00:00,-611.7723760822572
2024-11-13 20:00:00+00:00,-632.5136206232447
2024-11-14 14:00:00+00:00,-579.5645255867917
2024-11-14 15:00:00+00:00,-560.5867241527869
2024-11-14 16:00:00+00:00,-567.0291699998652
2024-11-14 17:00:00+00:00,-576.5207551386047
2024-11-14 18:00:00+00:00,-586.0902439523959
2024-11-14 19:00:00+00:00,-594.8375344303672
2024-11-14 20:00:00+00:00,-592.755354413623
2024-11-15 14:00:00+00:00,-549.923344032632
2024-11-15 15:00:00+00:00,-536.1481762867667
2024-11-15 16:00:00+00:00,-545.9543208005409
2024-11-15 17:00:00+00:00,-550.9948907330794
2024-11-15 18:00:00+00:00,-536.9589424977518
2024-11-15 19:00:00+00:00,-538.9207176121955
2024-11-15 20:00:00+00:00,-535.3432590094852
2024-11-18 14:00:00+00:00,-512.4678361980025
2024-11-18 15:00:00+00:00,-506.206184743821
2024-11-18 16:00:00+00:00,-505.7384151028635
2024-11-18 17:00:00+00:00,-502.7924764688721
2024-11-18 18:00:00+00:00,-500.84521192501813
2024-11-18 19:00:00+00:00,-524.1067997912227
2024-11-18 20:00:00+00:00,-531.3119510256322
2024-11-19 14:00:00+00:00,-579.2199505650997
2024-11-19 15:00:00+00:00,-560.4093142723654
2024-11-19 16:00:00+00:00,-574.9590088368072
2024-11-19 17:00:00+00:00,-579.4309243348929
2024-11-19 18:00:00+00:00,-587.9496759563033
2024-11-19 19:00:00+00:00,-577.4104798676472
2024-11-19 20:00:00+00:00,-563.8017225716907
2024-11-20 14:00:00+00:00,-613.3685394617203
2024-11-20 15:00:00+00:00,-614.2165404958392
2024-11-20 16:00:00+00:00,-605.3141847433618
2024-11-20 17:00:00+00:00,-599.7069617466655
2024-11-20 18:00:00+00:00,-607.5161247170992
2024-11-20 19:00:00+00:00,-616.6992122115472
2024-11-20 20:00:00+00:00,-613.4120280148949
2024-11-21 14:00:00+00:00,-656.4124773909093
2024-11-21 15:00:00+00:00,-687.2421651177829
2024-11-21 16:00:00+00:00,-704.7250080411684
2024-11-21 17:00:00+00:00,-687.3263306276741
2024-11-21 18:00:00+00:00,-669.0073816813226
2024-11-21 19:00:00+00:00,-664.0436587022315
2024-11-21 20:00:00+00:00,-648.4343124484944
2024-11-22 14:00:00+00:00,-725.7857024244195
2024-11-22 15:00:00+00:00,-748.7556699834099
2024-11-22 16:00:00+00:00,-736.453567374272
2024-11-22 17:00:00+00:00,-698.6446293561293
2024-11-22 18:00:00+00:00,-715.0606153530548
2024-11-22 19:00:00+00:00,-718.8712310258941
2024-11-22 20:00:00+00:00,-707.9031780282327
2024-11-25 14:00:00+00:00,-742.9617881701867
2024-11-25 15:00:00+00:00,-750.4914195578383
2024-11-25 16:00:00+00:00,-748.0587076048366
2024-11-25 17:00:00+00:00,-740.9123246118453
2024-11-25 18:00:00+00:00,-725.4914013994003
2024-11-25 19:00:00+00:00,-733.5808787427958
2024-11-25 20:00:00+00:00,-744.4429099842919
2024-11-26 14:00:00+00:00,-789.0477806926663
2024-11-26 15:00:00+00:00,-800.7180893766786
2024-11-26 16:00:00+00:00,-837.2038899364433
2024-11-26 17:00:00+00:00,-831.6292270530415
2024-11-26 18:00:00+00:00,-856.2828962392916
2024-11-26 19:00:00+00:00,-850.9554246385993
2024-11-26 20:00:00+00:00,-835.9308101610493
2024-11-27 14:00:00+00:00,-926.3467462683512
2024-11-27 15:00:00+00:00,-914.263646077883
2024-11-27 16:00:00+00:00,-884.1484986092171
2024-11-27 17:00:00+00:00,-885.5612997115263
2024-11-27 18:00:00+00:00,-886.1280170350308
2024-11-27 19:00:00+00:00,-885.4047027558972
2024-11-27 20:00:00+00:00,-888.9005583604604
2024-11-29 14:00:00+00:00,-833.4362434341891
2024-11-29 15:00:00+00:00,-805.6778784764165
2024-11-29 16:00:00+00:00,-818.0258558044704
2024-12-02 14:00:00+00:00,-923.7467069875877
2024-12-02 15:00:00+00:00,-905.598507800323
2024-12-02 16:00:00+00:00,-900.224567765704
2024-12-02 17:00:00+00:00,-923.0132625555523
2024-12-02 18:00:00+00:00,-928.5295626273612
2024-12-02 19:00:00+00:00,-930.7642328341973
2024-12-02 20:00:00+00:00,-916.9539424632948
2024-12-03 14:00:00+00:00,-879.6924120016369
2024-12-03 15:00:00+00:00,-881.4855206956383
2024-12-03 16:00:00+00:00,-868.1495909749959
2024-12-03 17:00:00+00:00,-873.521920617874
2024-12-03 18:00:00+00:00,-890.2302367226814
2024-12-03 19:00:00+00:00,-869.7387579153317
2024-12-03 20:00:00+00:00,-864.9787376657754
2024-12-04 14:00:00+00:00,-820.6380902139326
2024-12-04 15:00:00+00:00,-839.597559297138
2024-12-04 16:00:00+00:00,-839.3457921932062
2024-12-04 17:00:00+00:00,-856.2911694278228
2024-12-04 18:00:00+00:00,-851.9578364326828
2024-12-04 19:00:00+00:00,-844.3335536458313
2024-12-04 20:00:00+00:00,-841.3336765471574
2024-12-05 14:00:00+00:00,-833.7465296948229
2024-12-05 15:00:00+00:00,-798.7148073952046
2024-12-05 16:00:00+00:00,-798.9536831719792
2024-12-05 17:00:00+00:00,-810.0600476459289
2024-12-05 18:00:00+00:00,-782.5065341875892
2024-12-05 19:00:00+00:00,-772.4299701437346
2024-12-05 20:00:00+00:00,-775.558704388791
2024-12-06 14:00:00+00:00,-735.3002246865584
2024-12-06 15:00:00+00:00,-733.3209026893212
2024-12-06 16:00:00+00:00,-757.2504473702746
2024-12-06 17:00:00+00:00,-771.5817206583865
2024-12-06 18:00:00+00:00,-778.6007364453725
2024-12-06 19:00:00+00:00,-775.2953956808788
2024-12-06 20:00:00+00:00,-785.1017366232295
2024-12-09 14:00:00+00:00,-638.6133572818046
2024-12-09 15:00:00+00:00,-660.1789510143332
2024-12-09 16:00:00+00:00,-695.9494040194749
2024-12-09 17:00:00+00:00,-724.1733689636153
2024-12-09 18:00:00+00:00,-709.3959457687755
2024-12-09 19:00:00+00:00,-711.562181221373
2024-12-09 20:00:00+00:00,-705.6155545792242
2024-12-10 14:00:00+00:00,-779.6432382215662
2024-12-10 15:00:00+00:00,-772.9163922108406
2024-12-10 16:00:00+00:00,-779.714747315893
2024-12-10 17:00:00+00:00,-772.4140491471087
2024-12-10 18:00:00+00:00,-766.6507542211675
2024-12-10 19:00:00+00:00,-756.4212951908821
2024-12-10 20:00:00+00:00,-765.3494536416574
2024-12-11 14:00:00+00:00,-840.0766220908457
2024-12-11 15:00:00+00:00,-812.6835735508633
2024-12-11 16:00:00+00:00,-808.7658029416818
2024-12-11 17:00:00+00:00,-797.2169921306541
2024-12-11 18:00:00+00:00,-794.4158772274227
2024-12-11 19:00:00+00:00,-798.564957572668
2024-12-11 20:00:00+00:00,-801.2086417517148
2024-12-12 14:00:00+00:00,-829.4113397353119
2024-12-12 15:00:00+00:00,-852.6580788095547
2024-12-12 16:00:00+00:00,-836.8851456415521
2024-12-12 17:00:00+00:00,-851.470969485771
2024-12-12 18:00:00+00:00,-855.9722687878224
2024-12-12 19:00:00+00:00,-856.5532230297656
2024-12-12 20:00:00+00:00,-848.5385786968516
2024-12-13 14:00:00+00:00,-851.7599525753743
2024-12-13 15:00:00+00:00,-831.7685840189263
2024-12-13 16:00:00+00:00,-838.377610752461
2024-12-13 17:00:00+00:00,-847.2287558440951
2024-12-13 18:00:00+00:00,-842.8853727858017
2024-12-13 19:00:00+00:00,-842.2118550522191
2024-12-13 20:00:00+00:00,-855.8136224076495
2024-12-16 14:00:00+00:00,-934.7576428070413
2024-12-16 15:00:00+00:00,-930.6085680545061
2024-12-16 16:00:00+00:00,-944.3885825086162
2024-12-16 17:00:00+00:00,-972.4264904946306
2024-12-16 18:00:00+00:00,-978.2719777044505
2024-12-16 19:00:00+00:00,-976.6345355098694
2024-12-16 20:00:00+00:00,-984.0843029425753
2024-12-17 14:00:00+00:00,-916.7635378165423
2024-12-17 15:00:00+00:00,-928.5850416986743
2024-12-17 16:00:00+00:00,-922.5306746246275
2024-12-17 17:00:00+00:00,-910.4376082634184
2024-12-17 18:00:00+00:00,-900.47590201582
2024-12-17 19:00:00+00:00,-917.4485850627935
2024-12-17 20:00:00+00:00,-940.906778997122
2024-12-18 14:00:00+00:00,-883.0176798156591
2024-12-18 15:00:00+00:00,-879.0549234118538
2024-12-18 16:00:00+00:00,-861.2774266897628
2024-12-18 17:00:00+00:00,-869.7453067265086
2024-12-18 18:00:00+00:00,-879.7601589789574
2024-12-18 19:00:00+00:00,-926.4374724083267
2024-12-18 20:00:00+00:00,-908.7673694434985
2024-12-19 14:00:00+00:00,-893.7890143986281
2024-12-19 15:00:00+00:00,-878.1828444542202
2024-12-19 16:00:00+00:00,-861.725422669327
2024-12-19 17:00:00+00:00,-886.5655760844265
2024-12-19 18:00:00+00:00,-866.9045388557313
2024-12-19 19:00:00+00:00,-875.6968000006054
2024-12-19 20:00:00+00:00,-878.2612592038546
2024-12-20 14:00:00+00:00,-894.8343655436238
2024-12-20 15:00:00+00:00,-865.8718066321063
2024-12-20 16:00:00+00:00,-841.5362278596936
2024-12-20 17:00:00+00:00,-845.179801404549
2024-12-20 18:00:00+00:00,-827.2770167025589
2024-12-20 19:00:00+00:00,-832.4819837755252
2024-12-20 20:00:00+00:00,-842.2716455177411
2024-12-23 14:00:00+00:00,-881.8561946601956
2024-12-23 15:00:00+00:00,-885.4574827351929
2024-12-23 16:00:00+00:00,-852.7679549116244
2024-12-23 17:00:00+00:00,-851.8905700735405
2024-12-23 18:00:00+00:00,-855.5236024429587
2024-12-23 19:00:00+00:00,-873.6192940602136
2024-12-23 20:00:00+00:00,-856.2346350799829
2024-12-24 14:00:00+00:00,-878.5094327497255
2024-12-24 15:00:00+00:00,-886.9537679759004
2024-12-24 16:00:00+00:00,-871.4679329046281
2024-12-26 14:00:00+00:00,-821.40673344918
2024-12-26 15:00:00+00:00,-803.9034337914132
2024-12-26 16:00:00+00:00,-807.9897719324213
2024-12-26 17:00:00+00:00,-824.9516319385981
2024-12-26 18:00:00+00:00,-840.6660058664303
2024-12-26 19:00:00+00:00,-842.5508357722977
2024-12-26 20:00:00+00:00,-856.014056721735
2024-12-27 14:00:00+00:00,-829.0318264621942
2024-12-27 15:00:00+00:00,-809.4324384670518
2024-12-27 16:00:00+00:00,-841.2797166502455
2024-12-27 17:00:00+00:00,-846.845878773315
2024-12-27 18:00:00+00:00,-845.2771667068706
2024-12-27 19:00:00+00:00,-847.2373818063123
2024-12-27 20:00:00+00:00,-839.2499522562614
2024-12-30 14:00:00+00:00,-841.0010682469182
2024-12-30 15:00:00+00:00,-852.1655773640286
2024-12-30 16:00:00+00:00,-854.7802825354482
2024-12-30 17:00:00+00:00,-833.7741608568747
2024-12-30 18:00:00+00:00,-836.7275776650127
2024-12-30 19:00:00+00:00,-831.7105627115428
2024-12-30 20:00:00+00:00,-847.9275466864212
2024-12-31 14:00:00+00:00,-889.4285593216389
2024-12-31 15:00:00+00:00,-899.284099532546
2024-12-31 16:00:00+00:00,-891.5601350355163
2024-12-31 17:00:00+00:00,-895.231111648421
2024-12-31 18:00:00+00:00,-902.783745244025
2024-12-31 19:00:00+00:00,-869.4203263106587
2024-12-31 20:00:00+00:00,-898.8558444819416
2025-01-02 14:00:00+00:00,-907.4012491112823
2025-01-02 15:00:00+00:00,-907.9254083378202
2025-01-02 16:00:00+00:00,-884.8373156437511
2025-01-02 17:00:00+00:00,-886.0051713164703
2025-01-02 18:00:00+00:00,-891.7680608125877
2025-01-02 19:00:00+00:00,-908.2982804575832
2025-01-02 20:00:00+00:00,-896.5938031471348
2025-01-03 14:00:00+00:00,-884.9380040086689
2025-01-03 15:00:00+00:00,-876.8907995624603
2025-01-03 16:00:00+00:00,-862.3677179224798
2025-01-03 17:00:00+00:00,-883.869019819964
2025-01-03 18:00:00+00:00,-901.5476450580392
2025-01-03 19:00:00+00:00,-899.969768758368
2025-01-03 20:00:00+00:00,-899.0385687856308
2025-01-06 14:00:00+00:00,-820.4719144405594
2025-01-06 15:00:00+00:00,-795.1491252308803
2025-01-06 16:00:00+00:00,-781.6022999129998
2025-01-06 17:00:00+00:00,-786.8574942631826
2025-01-06 18:00:00+00:00,-781.1593263156008
2025-01-06 19:00:00+00:00,-789.6187084706787
2025-01-06 20:00:00+00:00,-781.7134712045062
2025-01-07 14:00:00+00:00,-752.6552724374053
2025-01-07 15:00:00+00:00,-769.000987684827
2025-01-07 16:00:00+00:00,-768.2488908266428
2025-01-07 17:00:00+00:00,-758.5682307213453
2025-01-07 18:00:00+00:00,-765.208406800416
2025-01-07 19:00:00+00:00,-770.7104920103845
2025-01-07 20:00:00+00:00,-760.5809111188548
2025-01-08 14:00:00+00:00,-830.538935820326
2025-01-08 15:00:00+00:00,-823.9046086749581
2025-01-08 16:00:00+00:00,-824.2447242528499
2025-01-08 17:00:00+00:00,-818.1744757207125
2025-01-08 18:00:00+00:00,-814.6578629463548
2025-01-08 19:00:00+00:00,-806.3187113034886
2025-01-08 20:00:00+00:00,-804.5099300640908
2025-01-10 14:00:00+00:00,-851.5363844732547
2025-01-10 15:00:00+00:00,-892.1380577303904
2025-01-10 16:00:00+00:00,-866.2323673615289
2025-01-10 17:00:00+00:00,-856.6970471741735
2025-01-10 18:00:00+00:00,-870.3721277800358
2025-01-10 19:00:00+00:00,-883.1908420571284
2025-01-10 20:00:00+00:00,-895.3081108740324
2025-01-13 14:00:00+00:00,-917.6433491398939
2025-01-13 15:00:00+00:00,-953.33721609521
2025-01-13 16:00:00+00:00,-965.9726143093917
2025-01-13 17:00:00+00:00,-987.8739005067752
2025-01-13 18:00:00+00:00,-982.2520735051954
2025-01-13 19:00:00+00:00,-966.8942152863851
2025-01-13 20:00:00+00:00,-962.6584243311245
2025-01-14 14:00:00+00:00,-943.5967110259988
2025-01-14 15:00:00+00:00,-933.5449674558756
2025-01-14 16:00:00+00:00,-945.3074184348735
2025-01-14 17:00:00+00:00,-932.0429596808783
2025-01-14 18:00:00+00:00,-915.7414934864016
2025-01-14 19:00:00+00:00,-910.3599739917156
2025-01-14 20:00:00+00:00,-917.2232510161799
2025-01-15 14:00:00+00:00,-891.5901491985016
2025-01-15 15:00:00+00:00,-902.2720944673908
2025-01-15 16:00:00+00:00,-920.1258544499092
2025-01-15 17:00:00+00:00,-912.3583995211043
2025-01-15 18:00:00+00:00,-911.0747841629845
2025-01-15 19:00:00+00:00,-904.8401510630889
2025-01-15 20:00:00+00:00,-931.595450345724
2025-01-16 14:00:00+00:00,-808.9238239414206
2025-01-16 15:00:00+00:00,-793.0081253064022
2025-01-16 16:00:00+00:00,-750.591468943609
2025-01-16 17:00:00+00:00,-747.0960061961995
2025-01-16 18:00:00+00:00,-768.6244802809925
2025-01-16 19:00:00+00:00,-773.5342008403077
2025-01-16 20:00:00+00:00,-818.6289273165889
2025-01-17 14:00:00+00:00,-751.1098774098916
2025-01-17 15:00:00+00:00,-767.6551677418815
2025-01-17 16:00:00+00:00,-784.2028079157194
2025-01-17 17:00:00+00:00,-761.4927932015399
2025-01-17 18:00:00+00:00,-759.4689759963885
2025-01-17 19:00:00+00:00,-745.7617400735702
2025-01-17 20:00:00+00:00,-731.6349671684854
2025-01-21 14:00:00+00:00,-759.8795258633037
2025-01-21 15:00:00+00:00,-775.2659476379255
2025-01-21 16:00:00+00:00,-735.1921654653935
2025-01-21 17:00:00+00:00,-732.8717212355249
2025-01-21 18:00:00+00:00,-718.1669620300628
2025-01-21 19:00:00+00:00,-729.3866410402927
2025-01-21 20:00:00+00:00,-757.5380830864193
2025-01-22 14:00:00+00:00,-799.4490362202466
2025-01-22 15:00:00+00:00,-800.9248521539018
2025-01-22 16:00:00+00:00,-803.5921693766584
2025-01-22 17:00:00+00:00,-805.004236451336
2025-01-22 18:00:00+00:00,-806.7425233559443
2025-01-22 19:00:00+00:00,-816.2219220077195
2025-01-22 20:00:00+00:00,-812.3924246796521
2025-01-23 14:00:00+00:00,-757.6327841790368
2025-01-23 15:00:00+00:00,-766.6979166196162
2025-01-23 16:00:00+00:00,-763.499891123087
2025-01-23 17:00:00+00:00,-746.3335307338831
2025-01-23 18:00:00+00:00,-737.6394535321645
2025-01-23 19:00:00+00:00,-730.0212387022547
2025-01-23 20:00:00+00:00,-742.0226276991366
2025-01-24 14:00:00+00:00,-730.0060071636832
2025-01-24 15:00:00+00:00,-712.0702569185735
2025-01-24 16:00:00+00:00,-693.0055637326958
2025-01-24 17:00:00+00:00,-710.4389709140736
2025-01-24 18:00:00+00:00,-695.7781050581254
2025-01-24 19:00:00+00:00,-692.2662238010008
2025-01-24 20:00:00+00:00,-689.3415334534593
2025-01-27 14:00:00+00:00,-728.7585455155133
2025-01-27 15:00:00+00:00,-725.9794313461622
2025-01-27 16:00:00+00:00,-700.7088750667683
2025-01-27 17:00:00+00:00,-672.9834630794446
2025-01-27 18:00:00+00:00,-676.496423559911
2025-01-27 19:00:00+00:00,-670.8121363017615
2025-01-27 20:00:00+00:00,-671.1087633264787
2025-01-28 14:00:00+00:00,-707.433707768014
2025-01-28 15:00:00+00:00,-701.9676417251909
2025-01-28 16:00:00+00:00,-713.1795132676561
2025-01-28 17:00:00+00:00,-705.2877788922914
2025-01-28 18:00:00+00:00,-718.9725848547171
2025-01-28 19:00:00+00:00,-711.1448001961877
2025-01-28 20:00:00+00:00,-706.5523489671091
2025-01-29 14:00:00+00:00,-706.9651940332199
2025-01-29 15:00:00+00:00,-725.2443664618005
2025-01-29 16:00:00+00:00,-713.2196290829252
2025-01-29 17:00:00+00:00,-706.2515389783232
2025-01-29 18:00:00+00:00,-737.4626764173089
2025-01-29 19:00:00+00:00,-710.4339777238416
2025-01-29 20:00:00+00:00,-724.3790850026306
2025-01-30 14:00:00+00:00,-664.7504100428707
2025-01-30 15:00:00+00:00,-682.6925003339671
2025-01-30 16:00:00+00:00,-654.6511213163229
2025-01-30 17:00:00+00:00,-640.0937609758686
2025-01-30 18:00:00+00:00,-624.5226354839428
2025-01-30 19:00:00+00:00,-620.0057418090495
2025-01-30 20:00:00+00:00,-637.3339248877542
2025-01-31 14:00:00+00:00,-588.937684444491
2025-01-31 15:00:00+00:00,-581.701186202094
2025-01-31 16:00:00+00:00,-559.4575128029887
2025-01-31 17:00:00+00:00,-581.9323001430685
2025-01-31 18:00:00+00:00,-607.0092437623612
2025-01-31 19:00:00+00:00,-615.5710785071216
2025-01-31 20:00:00+00:00,-609.0358318470172
2025-02-03 14:00:00+00:00,-658.7509685357409
2025-02-03 15:00:00+00:00,-665.9598973043946
2025-02-03 16:00:00+00:00,-670.0557643733883
2025-02-03 17:00:00+00:00,-680.6642517135173
2025-02-03 18:00:00+00:00,-656.9620428058084
2025-02-03 19:00:00+00:00,-675.7660418181691
2025-02-03 20:00:00+00:00,-677.0433045576308
2025-02-04 14:00:00+00:00,-589.070971088977
2025-02-04 15:00:00+00:00,-533.2035900128137
2025-02-04 16:00:00+00:00,-557.4893276133939
2025-02-04 17:00:00+00:00,-553.3305219115849
2025-02-04 18:00:00+00:00,-548.5810246720841
2025-02-04 19:00:00+00:00,-560.1363845303459
2025-02-04 20:00:00+00:00,-548.0892171910787
2025-02-05 14:00:00+00:00,-419.64336742095327
2025-02-05 15:00:00+00:00,-415.686696652492
2025-02-05 16:00:00+00:00,-439.1734641646224
2025-02-05 17:00:00+00:00,-417.05250429449
2025-02-05 18:00:00+00:00,-403.6188635775949
2025-02-05 19:00:00+00:00,-381.81479103798307
2025-02-05 20:00:00+00:00,-411.606502128895
2025-02-06 14:00:00+00:00,-320.9391917748148
2025-02-06 15:00:00+00:00,-320.9391917748148
2025-02-06 16:00:00+00:00,-320.9391917748148
2025-02-06 17:00:00+00:00,-320.9391917748148
2025-02-06 18:00:00+00:00,-320.9391917748148
2025-02-06 19:00:00+00:00,-320.9391917748148
2025-02-06 20:00:00+00:00,-320.9391917748148
2025-02-07 14:00:00+00:00,-320.9391917748148
2025-02-07 15:00:00+00:00,-320.9391917748148
2025-02-07 16:00:00+00:00,-320.9391917748148
2025-02-07 17:00:00+00:00,-320.9391917748148
2025-02-07 18:00:00+00:00,-320.9391917748148
2025-02-07 19:00:00+00:00,-320.9391917748148
2025-02-07 20:00:00+00:00,-320.9391917748148
2025-02-10 14:00:00+00:00,-320.9391917748148
2025-02-10 15:00:00+00:00,-320.9391917748148
2025-02-10 16:00:00+00:00,-320.9391917748148
2025-02-10 17:00:00+00:00,-320.9391917748148
2025-02-10 18:00:00+00:00,-320.9391917748148
2025-02-10 19:00:00+00:00,-320.9391917748148
2025-02-10 20:00:00+00:00,-320.9391917748148
2025-02-11 14:00:00+00:00,-320.9391917748148
2025-02-11 15:00:00+00:00,-320.9391917748148
2025-02-11 16:00:00+00:00,-320.9391917748148
2025-02-11 17:00:00+00:00,-320.9391917748148
2025-02-11 18:00:00+00:00,-320.9391917748148
2025-02-11 19:00:00+00:00,-320.9391917748148
2025-02-11 20:00:00+00:00,-320.9391917748148
2025-02-12 14:00:00+00:00,-320.9391917748148
2025-02-12 15:00:00+00:00,-320.9391917748148
2025-02-12 16:00:00+00:00,-320.9391917748148
2025-02-12 17:00:00+00:00,-320.9391917748148
2025-02-12 18:00:00+00:00,-320.9391917748148
2025-02-12 19:00:00+00:00,-320.9391917748148
2025-02-12 20:00:00+00:00,-320.9391917748148
2025-02-13 14:00:00+00:00,-320.9391917748148
2025-02-13 15:00:00+00:00,-320.9391917748148
2025-02-13 16:00:00+00:00,-320.9391917748148
2025-02-13 17:00:00+00:00,-320.9391917748148
2025-02-13 18:00:00+00:00,-320.9391917748148
2025-02-13 19:00:00+00:00,-320.9391917748148
2025-02-13 20:00:00+00:00,-320.9391917748148
2025-02-14 14:00:00+00:00,-320.9391917748148
2025-02-14 15:00:00+00:00,-320.9391917748148
2025-02-14 16:00:00+00:00,-320.9391917748148
2025-02-14 17:00:00+00:00,-320.9391917748148
2025-02-14 18:00:00+00:00,-320.9391917748148
2025-02-14 19:00:00+00:00,-320.9391917748148
2025-02-14 20:00:00+00:00,-320.9391917748148
2025-02-18 14:00:00+00:00,-320.9391917748148
2025-02-18 15:00:00+00:00,-320.9391917748148
2025-02-18 16:00:00+00:00,-320.9391917748148
2025-02-18 17:00:00+00:00,-320.9391917748148
2025-02-18 18:00:00+00:00,-320.9391917748148
2025-02-18 19:00:00+00:00,-320.9391917748148
2025-02-18 20:00:00+00:00,-320.9391917748148
2025-02-19 14:00:00+00:00,-320.9391917748148
2025-02-19 15:00:00+00:00,-320.9391917748148
2025-02-19 16:00:00+00:00,-320.9391917748148
2025-02-19 17:00:00+00:00,-320.9391917748148
2025-02-19 18:00:00+00:00,-320.9391917748148
2025-02-19 19:00:00+00:00,-320.9391917748148
2025-02-19 20:00:00+00:00,-320.9391917748148
2025-02-20 14:00:00+00:00,-320.9391917748148
2025-02-20 15:00:00+00:00,-320.9391917748148
2025-02-20 16:00:00+00:00,-320.9391917748148
2025-02-20 17:00:00+00:00,-320.9391917748148
2025-02-20 18:00:00+00:00,-320.9391917748148
2025-02-20 19:00:00+00:00,-320.9391917748148
2025-02-20 20:00:00+00:00,-320.9391917748148
2025-02-21 14:00:00+00:00,-320.9391917748148
2025-02-21 15:00:00+00:00,-320.9391917748148
2025-02-21 16:00:00+00:00,-320.9391917748148
2025-02-21 17:00:00+00:00,-320.9391917748148
2025-02-21 18:00:00+00:00,-320.9391917748148
2025-02-21 19:00:00+00:00,-320.9391917748148
2025-02-21 20:00:00+00:00,-320.9391917748148
2025-02-24 14:00:00+00:00,-320.9391917748148
2025-02-24 15:00:00+00:00,-320.9391917748148
2025-02-24 16:00:00+00:00,-320.9391917748148
2025-02-24 17:00:00+00:00,-320.9391917748148
2025-02-24 18:00:00+00:00,-320.9391917748148
2025-02-24 19:00:00+00:00,-320.9391917748148
2025-02-24 20:00:00+00:00,-320.9391917748148
2025-02-25 14:00:00+00:00,-320.9391917748148
2025-02-25 15:00:00+00:00,-320.9391917748148
2025-02-25 16:00:00+00:00,-320.9391917748148
2025-02-25 17:00:00+00:00,-320.9391917748148
2025-02-25 18:00:00+00:00,-320.9391917748148
2025-02-25 19:00:00+00:00,-320.9391917748148
2025-02-25 20:00:00+00:00,-320.9391917748148
2025-02-26 14:00:00+00:00,-320.9391917748148
2025-02-26 15:00:00+00:00,-320.9391917748148
2025-02-26 16:00:00+00:00,-320.9391917748148
2025-02-26 17:00:00+00:00,-320.9391917748148
2025-02-26 18:00:00+00:00,-320.9391917748148
2025-02-26 19:00:00+00:00,-320.9391917748148
2025-02-26 20:00:00+00:00,-320.9391917748148
2025-02-27 14:00:00+00:00,-320.9391917748148
2025-02-27 15:00:00+00:00,-320.9391917748148
2025-02-27 16:00:00+00:00,-320.9391917748148
2025-02-27 17:00:00+00:00,-320.9391917748148
2025-02-27 18:00:00+00:00,-320.9391917748148
2025-02-27 19:00:00+00:00,-320.9391917748148
2025-02-27 20:00:00+00:00,-320.9391917748148
2025-02-28 14:00:00+00:00,-320.9391917748148
2025-02-28 15:00:00+00:00,-320.9391917748148
2025-02-28 16:00:00+00:00,-320.9391917748148
2025-02-28 17:00:00+00:00,-320.9391917748148
2025-02-28 18:00:00+00:00,-320.9391917748148
2025-02-28 19:00:00+00:00,-320.9391917748148
2025-02-28 20:00:00+00:00,-320.9391917748148
2025-03-03 14:00:00+00:00,-320.9391917748148
2025-03-03 15:00:00+00:00,-320.9391917748148
2025-03-03 16:00:00+00:00,-320.9391917748148
2025-03-03 17:00:00+00:00,-320.9391917748148
2025-03-03 18:00:00+00:00,-320.9391917748148
2025-03-03 19:00:00+00:00,-320.9391917748148
2025-03-03 20:00:00+00:00,-320.9391917748148
2025-03-04 14:00:00+00:00,-320.9391917748148
2025-03-04 15:00:00+00:00,-320.9391917748148
2025-03-04 16:00:00+00:00,-320.9391917748148
2025-03-04 17:00:00+00:00,-320.9391917748148
2025-03-04 18:00:00+00:00,-320.9391917748148
2025-03-04 19:00:00+00:00,-320.9391917748148
2025-03-04 20:00:00+00:00,-320.9391917748148
2025-03-05 14:00:00+00:00,-320.9391917748148
2025-03-05 15:00:00+00:00,-320.9391917748148
2025-03-05 16:00:00+00:00,-320.9391917748148
2025-03-05 17:00:00+00:00,-320.9391917748148
2025-03-05 18:00:00+00:00,-320.9391917748148
2025-03-05 19:00:00+00:00,-320.9391917748148
2025-03-05 20:00:00+00:00,-320.9391917748148
2025-03-06 14:00:00+00:00,-320.9391917748148
2025-03-06 15:00:00+00:00,-320.9391917748148
2025-03-06 16:00:00+00:00,-320.9391917748148
2025-03-06 17:00:00+00:00,-320.9391917748148
2025-03-06 18:00:00+00:00,-320.9391917748148
2025-03-06 19:00:00+00:00,-320.9391917748148
2025-03-06 20:00:00+00:00,-320.9391917748148
2025-03-07 14:00:00+00:00,-320.9391917748148
2025-03-07 15:00:00+00:00,-320.9391917748148
2025-03-07 16:00:00+00:00,-320.9391917748148
2025-03-07 17:00:00+00:00,-320.9391917748148
2025-03-07 18:00:00+00:00,-320.9391917748148
2025-03-07 19:00:00+00:00,-320.9391917748148
2025-03-07 20:00:00+00:00,-320.9391917748148
2025-03-10 13:00:00+00:00,-320.9391917748148
2025-03-10 14:00:00+00:00,-320.9391917748148
2025-03-10 15:00:00+00:00,-320.9391917748148
2025-03-10 16:00:00+00:00,-320.9391917748148
2025-03-10 17:00:00+00:00,-320.9391917748148
2025-03-10 18:00:00+00:00,-320.9391917748148
2025-03-10 19:00:00+00:00,-320.9391917748148
2025-03-11 13:00:00+00:00,-320.9391917748148
2025-03-11 14:00:00+00:00,-320.9391917748148
2025-03-11 15:00:00+00:00,-320.9391917748148
2025-03-11 16:00:00+00:00,-320.9391917748148
2025-03-11 17:00:00+00:00,-320.9391917748148
2025-03-11 18:00:00+00:00,-320.9391917748148
2025-03-11 19:00:00+00:00,-320.9391917748148
2025-03-12 13:00:00+00:00,-320.9391917748148
2025-03-12 14:00:00+00:00,-320.9391917748148
2025-03-12 15:00:00+00:00,-320.9391917748148
2025-03-12 16:00:00+00:00,-320.9391917748148
2025-03-12 17:00:00+00:00,-320.9391917748148
2025-03-12 18:00:00+00:00,-320.9391917748148
2025-03-12 19:00:00+00:00,-320.9391917748148
2025-03-13 13:00:00+00:00,-320.9391917748148
2025-03-13 14:00:00+00:00,-320.9391917748148
2025-03-13 15:00:00+00:00,-320.9391917748148
2025-03-13 16:00:00+00:00,-320.9391917748148
2025-03-13 17:00:00+00:00,-320.9391917748148
2025-03-13 18:00:00+00:00,-320.9391917748148
2025-03-13 19:00:00+00:00,-320.9391917748148
2025-03-14 13:00:00+00:00,-320.9391917748148
2025-03-14 14:00:00+00:00,-320.9391917748148
2025-03-14 15:00:00+00:00,-320.9391917748148
2025-03-14 16:00:00+00:00,-320.9391917748148
2025-03-14 17:00:00+00:00,-320.9391917748148
2025-03-14 18:00:00+00:00,-320.9391917748148
2025-03-14 19:00:00+00:00,-320.9391917748148
2025-03-17 13:00:00+00:00,-320.9391917748148
2025-03-17 14:00:00+00:00,-320.9391917748148
2025-03-17 15:00:00+00:00,-320.9391917748148
2025-03-17 16:00:00+00:00,-320.9391917748148
2025-03-17 17:00:00+00:00,-320.9391917748148
2025-03-17 18:00:00+00:00,-320.9391917748148
2025-03-17 19:00:00+00:00,-320.9391917748148
2025-03-18 13:00:00+00:00,-320.9391917748148
2025-03-18 14:00:00+00:00,-320.9391917748148
2025-03-18 15:00:00+00:00,-320.9391917748148
2025-03-18 16:00:00+00:00,-320.9391917748148
2025-03-18 17:00:00+00:00,-320.9391917748148
2025-03-18 18:00:00+00:00,-320.9391917748148
2025-03-18 19:00:00+00:00,-320.9391917748148
2025-03-19 13:00:00+00:00,-320.9391917748148
2025-03-19 14:00:00+00:00,-320.9391917748148
2025-03-19 15:00:00+00:00,-320.9391917748148
2025-03-19 16:00:00+00:00,-320.9391917748148
2025-03-19 17:00:00+00:00,-320.9391917748148
2025-03-19 18:00:00+00:00,-320.9391917748148
2025-03-19 19:00:00+00:00,-320.9391917748148
2025-03-20 13:00:00+00:00,-320.9391917748148
2025-03-20 14:00:00+00:00,-320.9391917748148
2025-03-20 15:00:00+00:00,-320.9391917748148
2025-03-20 16:00:00+00:00,-320.9391917748148
2025-03-20 17:00:00+00:00,-320.9391917748148
2025-03-20 18:00:00+00:00,-320.9391917748148
2025-03-20 19:00:00+00:00,-320.9391917748148
2025-03-21 13:00:00+00:00,-320.9391917748148
2025-03-21 14:00:00+00:00,-320.9391917748148
2025-03-21 15:00:00+00:00,-320.9391917748148
2025-03-21 16:00:00+00:00,-320.9391917748148
2025-03-21 17:00:00+00:00,-320.9391917748148
2025-03-21 18:00:00+00:00,-320.9391917748148
2025-03-21 19:00:00+00:00,-320.9391917748148
2025-03-24 13:00:00+00:00,-320.9391917748148
2025-03-24 14:00:00+00:00,-320.9391917748148
2025-03-24 15:00:00+00:00,-320.9391917748148
2025-03-24 16:00:00+00:00,-320.9391917748148
2025-03-24 17:00:00+00:00,-320.9391917748148
2025-03-24 18:00:00+00:00,-320.9391917748148
2025-03-24 19:00:00+00:00,-320.9391917748148
2025-03-25 13:00:00+00:00,-320.9391917748148
2025-03-25 14:00:00+00:00,-320.9391917748148
2025-03-25 15:00:00+00:00,-320.9391917748148
2025-03-25 16:00:00+00:00,-320.9391917748148
2025-03-25 17:00:00+00:00,-320.9391917748148
2025-03-25 18:00:00+00:00,-320.9391917748148
2025-03-25 19:00:00+00:00,-320.9391917748148
2025-03-26 13:00:00+00:00,-320.9391917748148
2025-03-26 14:00:00+00:00,-320.9391917748148
2025-03-26 15:00:00+00:00,-320.9391917748148
2025-03-26 16:00:00+00:00,-320.9391917748148
2025-03-26 17:00:00+00:00,-320.9391917748148
2025-03-26 18:00:00+00:00,-320.9391917748148
2025-03-26 19:00:00+00:00,-320.9391917748148
2025-03-27 13:00:00+00:00,-320.9391917748148
2025-03-27 14:00:00+00:00,-320.9391917748148
2025-03-27 15:00:00+00:00,-320.9391917748148
2025-03-27 16:00:00+00:00,-320.9391917748148
2025-03-27 17:00:00+00:00,-320.9391917748148
2025-03-27 18:00:00+00:00,-320.9391917748148
2025-03-27 19:00:00+00:00,-320.9391917748148
2025-03-28 13:00:00+00:00,-320.9391917748148
2025-03-28 14:00:00+00:00,-320.9391917748148
2025-03-28 15:00:00+00:00,-320.9391917748148
2025-03-28 16:00:00+00:00,-320.9391917748148
2025-03-28 17:00:00+00:00,-320.9391917748148
2025-03-28 18:00:00+00:00,-320.9391917748148
2025-03-28 19:00:00+00:00,-320.9391917748148
2025-03-31 13:00:00+00:00,-320.9391917748148
2025-03-31 14:00:00+00:00,-320.9391917748148
2025-03-31 15:00:00+00:00,-320.9391917748148
2025-03-31 16:00:00+00:00,-320.9391917748148
2025-03-31 17:00:00+00:00,-320.9391917748148
2025-03-31 18:00:00+00:00,-320.9391917748148
2025-03-31 19:00:00+00:00,-320.9391917748148
2025-04-01 13:00:00+00:00,-320.9391917748148
2025-04-01 14:00:00+00:00,-320.9391917748148
2025-04-01 15:00:00+00:00,-320.9391917748148
2025-04-01 16:00:00+00:00,-320.9391917748148
2025-04-01 17:00:00+00:00,-320.9391917748148
2025-04-01 18:00:00+00:00,-320.9391917748148
2025-04-01 19:00:00+00:00,-320.9391917748148
2025-04-02 13:00:00+00:00,-320.9391917748148
2025-04-02 14:00:00+00:00,-320.9391917748148
2025-04-02 15:00:00+00:00,-320.9391917748148
2025-04-02 16:00:00+00:00,-320.9391917748148
2025-04-02 17:00:00+00:00,-320.9391917748148
2025-04-02 18:00:00+00:00,-320.9391917748148
2025-04-02 19:00:00+00:00,-320.9391917748148
2025-04-03 13:00:00+00:00,-320.9391917748148
2025-04-03 14:00:00+00:00,-320.9391917748148
2025-04-03 15:00:00+00:00,-320.9391917748148
2025-04-03 16:00:00+00:00,-320.9391917748148
2025-04-03 17:00:00+00:00,-320.9391917748148
2025-04-03 18:00:00+00:00,-320.9391917748148
2025-04-03 19:00:00+00:00,-320.9391917748148
2025-04-04 13:00:00+00:00,-320.9391917748148
2025-04-04 14:00:00+00:00,-320.9391917748148
2025-04-04 15:00:00+00:00,-320.9391917748148
2025-04-04 16:00:00+00:00,-320.9391917748148
2025-04-04 17:00:00+00:00,-320.9391917748148
2025-04-04 18:00:00+00:00,-320.9391917748148
2025-04-04 19:00:00+00:00,-320.9391917748148
2025-04-07 13:00:00+00:00,-320.9391917748148
2025-04-07 14:00:00+00:00,-320.9391917748148
2025-04-07 15:00:00+00:00,-320.9391917748148
2025-04-07 16:00:00+00:00,-320.9391917748148
2025-04-07 17:00:00+00:00,-320.9391917748148
2025-04-07 18:00:00+00:00,-320.9391917748148
2025-04-07 19:00:00+00:00,-320.9391917748148
2025-04-08 13:00:00+00:00,-320.9391917748148
2025-04-08 14:00:00+00:00,-320.9391917748148
2025-04-08 15:00:00+00:00,-320.9391917748148
2025-04-08 16:00:00+00:00,-320.9391917748148
2025-04-08 17:00:00+00:00,-320.9391917748148
2025-04-08 18:00:00+00:00,-320.9391917748148
2025-04-08 19:00:00+00:00,-320.9391917748148
2025-04-09 13:00:00+00:00,-320.9391917748148
2025-04-09 14:00:00+00:00,-320.9391917748148
2025-04-09 15:00:00+00:00,-320.9391917748148
2025-04-09 16:00:00+00:00,-320.9391917748148
2025-04-09 17:00:00+00:00,-320.9391917748148
2025-04-09 18:00:00+00:00,-320.9391917748148
2025-04-09 19:00:00+00:00,-320.9391917748148
2025-04-10 13:00:00+00:00,-320.9391917748148
2025-04-10 14:00:00+00:00,-320.9391917748148
2025-04-10 15:00:00+00:00,-320.9391917748148
2025-04-10 16:00:00+00:00,-320.9391917748148
2025-04-10 17:00:00+00:00,-320.9391917748148
2025-04-10 18:00:00+00:00,-320.9391917748148
2025-04-10 19:00:00+00:00,-320.9391917748148
2025-04-11 13:00:00+00:00,-320.9391917748148
2025-04-11 14:00:00+00:00,-320.9391917748148
2025-04-11 15:00:00+00:00,-320.9391917748148
2025-04-11 16:00:00+00:00,-320.9391917748148
2025-04-11 17:00:00+00:00,-320.9391917748148
2025-04-11 18:00:00+00:00,-320.9391917748148
2025-04-11 19:00:00+00:00,-320.9391917748148
2025-04-14 13:00:00+00:00,-320.9391917748148
2025-04-14 14:00:00+00:00,-320.9391917748148
2025-04-14 15:00:00+00:00,-320.9391917748148
2025-04-14 16:00:00+00:00,-320.9391917748148
2025-04-14 17:00:00+00:00,-320.9391917748148
2025-04-14 18:00:00+00:00,-320.9391917748148
2025-04-14 19:00:00+00:00,-320.9391917748148
2025-04-15 13:00:00+00:00,-320.9391917748148
2025-04-15 14:00:00+00:00,-320.9391917748148
2025-04-15 15:00:00+00:00,-320.9391917748148
2025-04-15 16:00:00+00:00,-320.9391917748148
2025-04-15 17:00:00+00:00,-320.9391917748148
2025-04-15 18:00:00+00:00,-320.9391917748148
2025-04-15 19:00:00+00:00,-320.9391917748148
2025-04-16 13:00:00+00:00,-320.9391917748148
2025-04-16 14:00:00+00:00,-320.9391917748148
2025-04-16 15:00:00+00:00,-320.9391917748148
2025-04-16 16:00:00+00:00,-320.9391917748148
2025-04-16 17:00:00+00:00,-320.9391917748148
2025-04-16 18:00:00+00:00,-320.9391917748148
2025-04-16 19:00:00+00:00,-320.9391917748148
2025-04-17 13:00:00+00:00,-320.9391917748148
2025-04-17 14:00:00+00:00,-320.9391917748148
2025-04-17 15:00:00+00:00,-320.9391917748148
2025-04-17 16:00:00+00:00,-320.9391917748148
2025-04-17 17:00:00+00:00,-320.9391917748148
2025-04-17 18:00:00+00:00,-320.9391917748148
2025-04-17 19:00:00+00:00,-320.9391917748148
2025-04-21 13:00:00+00:00,-320.9391917748148
2025-04-21 14:00:00+00:00,-320.9391917748148
2025-04-21 15:00:00+00:00,-320.9391917748148
2025-04-21 16:00:00+00:00,-320.9391917748148
2025-04-21 17:00:00+00:00,-320.9391917748148
2025-04-21 18:00:00+00:00,-320.9391917748148
2025-04-21 19:00:00+00:00,-320.9391917748148
2025-04-22 13:00:00+00:00,-320.9391917748148
2025-04-22 14:00:00+00:00,-320.9391917748148
2025-04-22 15:00:00+00:00,-320.9391917748148
2025-04-22 16:00:00+00:00,-320.9391917748148
2025-04-22 17:00:00+00:00,-320.9391917748148
2025-04-22 18:00:00+00:00,-320.9391917748148
2025-04-22 19:00:00+00:00,-320.9391917748148
2025-04-23 13:00:00+00:00,-320.9391917748148
2025-04-23 14:00:00+00:00,-320.9391917748148
2025-04-23 15:00:00+00:00,-320.9391917748148
2025-04-23 16:00:00+00:00,-320.9391917748148
2025-04-23 17:00:00+00:00,-320.9391917748148
2025-04-23 18:00:00+00:00,-320.9391917748148
2025-04-23 19:00:00+00:00,-320.9391917748148
2025-04-24 13:00:00+00:00,-320.9391917748148
2025-04-24 14:00:00+00:00,-320.9391917748148
2025-04-24 15:00:00+00:00,-320.9391917748148
2025-04-24 16:00:00+00:00,-320.9391917748148
2025-04-24 17:00:00+00:00,-320.9391917748148
2025-04-24 18:00:00+00:00,-320.9391917748148
2025-04-24 19:00:00+00:00,-320.9391917748148
2025-04-25 13:00:00+00:00,-320.9391917748148
2025-04-25 14:00:00+00:00,-320.9391917748148
2025-04-25 15:00:00+00:00,-320.9391917748148
2025-04-25 16:00:00+00:00,-320.9391917748148
2025-04-25 17:00:00+00:00,-320.9391917748148
2025-04-25 18:00:00+00:00,-320.9391917748148
2025-04-25 19:00:00+00:00,-320.9391917748148
2025-04-28 13:00:00+00:00,-320.9391917748148
2025-04-28 14:00:00+00:00,-320.9391917748148
2025-04-28 15:00:00+00:00,-320.9391917748148
2025-04-28 16:00:00+00:00,-320.9391917748148
2025-04-28 17:00:00+00:00,-320.9391917748148
2025-04-28 18:00:00+00:00,-320.9391917748148
2025-04-28 19:00:00+00:00,-320.9391917748148
2025-04-29 13:00:00+00:00,-320.9391917748148
2025-04-29 14:00:00+00:00,-320.9391917748148
2025-04-29 15:00:00+00:00,-320.9391917748148
2025-04-29 16:00:00+00:00,-320.9391917748148
2025-04-29 17:00:00+00:00,-320.9391917748148
2025-04-29 18:00:00+00:00,-320.9391917748148
2025-04-29 19:00:00+00:00,-320.9391917748148
2025-04-30 13:00:00+00:00,-320.9391917748148
2025-04-30 14:00:00+00:00,-320.9391917748148
2025-04-30 15:00:00+00:00,-320.9391917748148
2025-04-30 16:00:00+00:00,-320.9391917748148
2025-04-30 17:00:00+00:00,-320.9391917748148
2025-04-30 18:00:00+00:00,-320.9391917748148
2025-04-30 19:00:00+00:00,-320.9391917748148
2025-05-01 13:00:00+00:00,-320.9391917748148
2025-05-01 14:00:00+00:00,-320.9391917748148
2025-05-01 15:00:00+00:00,-320.9391917748148
2025-05-01 16:00:00+00:00,-320.9391917748148
2025-05-01 17:00:00+00:00,-320.9391917748148
2025-05-01 18:00:00+00:00,-320.9391917748148
2025-05-01 19:00:00+00:00,-320.9391917748148
2025-05-02 13:00:00+00:00,-320.9391917748148
2025-05-02 14:00:00+00:00,-320.9391917748148
2025-05-02 15:00:00+00:00,-320.9391917748148
2025-05-02 16:00:00+00:00,-320.9391917748148
2025-05-02 17:00:00+00:00,-320.9391917748148
2025-05-02 18:00:00+00:00,-320.9391917748148
2025-05-02 19:00:00+00:00,-320.9391917748148
2025-05-05 13:00:00+00:00,-320.9391917748148
2025-05-05 14:00:00+00:00,-320.9391917748148
2025-05-05 15:00:00+00:00,-320.9391917748148
2025-05-05 16:00:00+00:00,-320.9391917748148
2025-05-05 17:00:00+00:00,-320.9391917748148
2025-05-05 18:00:00+00:00,-320.9391917748148
2025-05-05 19:00:00+00:00,-320.9391917748148
2025-05-06 13:00:00+00:00,-320.9391917748148
2025-05-06 14:00:00+00:00,-320.9391917748148
2025-05-06 15:00:00+00:00,-320.9391917748148
2025-05-06 16:00:00+00:00,-320.9391917748148
2025-05-06 17:00:00+00:00,-320.9391917748148
2025-05-06 18:00:00+00:00,-320.9391917748148
2025-05-06 19:00:00+00:00,-320.9391917748148
2025-05-07 13:00:00+00:00,-320.9391917748148
2025-05-07 14:00:00+00:00,-320.9391917748148
2025-05-07 15:00:00+00:00,-320.9391917748148
2025-05-07 16:00:00+00:00,-320.9391917748148
2025-05-07 17:00:00+00:00,-320.9391917748148
2025-05-07 18:00:00+00:00,-320.9391917748148
2025-05-07 19:00:00+00:00,-320.9391917748148
2025-05-08 13:00:00+00:00,-320.9391917748148
2025-05-08 14:00:00+00:00,-320.9391917748148
2025-05-08 15:00:00+00:00,-320.9391917748148
2025-05-08 16:00:00+00:00,-320.9391917748148
2025-05-08 17:00:00+00:00,-320.9391917748148
2025-05-08 18:00:00+00:00,-320.9391917748148
2025-05-08 19:00:00+00:00,-320.9391917748148
2025-05-09 13:00:00+00:00,-320.9391917748148
2025-05-09 14:00:00+00:00,-320.9391917748148
2025-05-09 15:00:00+00:00,-320.9391917748148
2025-05-09 16:00:00+00:00,-320.9391917748148
2025-05-09 17:00:00+00:00,-320.9391917748148
2025-05-09 18:00:00+00:00,-320.9391917748148
2025-05-09 19:00:00+00:00,-320.9391917748148
2025-05-12 13:00:00+00:00,-320.9391917748148
2025-05-12 14:00:00+00:00,-320.9391917748148
2025-05-12 15:00:00+00:00,-320.9391917748148
2025-05-12 16:00:00+00:00,-320.9391917748148
2025-05-12 17:00:00+00:00,-320.9391917748148
2025-05-12 18:00:00+00:00,-320.9391917748148
2025-05-12 19:00:00+00:00,-320.9391917748148
2025-05-13 13:00:00+00:00,-320.9391917748148
2025-05-13 14:00:00+00:00,-320.9391917748148
2025-05-13 15:00:00+00:00,-320.9391917748148
2025-05-13 16:00:00+00:00,-320.9391917748148
2025-05-13 17:00:00+00:00,-320.9391917748148
2025-05-13 18:00:00+00:00,-320.9391917748148
2025-05-13 19:00:00+00:00,-320.9391917748148
2025-05-14 13:00:00+00:00,-320.9391917748148
2025-05-14 14:00:00+00:00,-320.9391917748148
2025-05-14 15:00:00+00:00,-320.9391917748148
2025-05-14 16:00:00+00:00,-320.9391917748148
2025-05-14 17:00:00+00:00,-320.9391917748148
2025-05-14 18:00:00+00:00,-320.9391917748148
2025-05-14 19:00:00+00:00,-320.9391917748148
2025-05-15 13:00:00+00:00,-320.9391917748148
2025-05-15 14:00:00+00:00,-320.9391917748148
2025-05-15 15:00:00+00:00,-320.9391917748148
2025-05-15 16:00:00+00:00,-320.9391917748148
2025-05-15 17:00:00+00:00,-320.9391917748148
2025-05-15 18:00:00+00:00,-320.9391917748148
2025-05-15 19:00:00+00:00,-320.9391917748148
2025-05-16 13:00:00+00:00,-320.9391917748148
2025-05-16 14:00:00+00:00,-320.9391917748148
2025-05-16 15:00:00+00:00,-320.9391917748148
2025-05-16 16:00:00+00:00,-320.9391917748148
2025-05-16 17:00:00+00:00,-320.9391917748148
2025-05-16 18:00:00+00:00,-320.9391917748148
2025-05-16 19:00:00+00:00,-320.9391917748148
2025-05-19 13:00:00+00:00,-320.9391917748148
2025-05-19 14:00:00+00:00,-320.9391917748148
2025-05-19 15:00:00+00:00,-320.9391917748148
2025-05-19 16:00:00+00:00,-320.9391917748148
2025-05-19 17:00:00+00:00,-320.9391917748148
2025-05-19 18:00:00+00:00,-320.9391917748148
2025-05-19 19:00:00+00:00,-320.9391917748148
2025-05-20 13:00:00+00:00,-320.9391917748148
2025-05-20 14:00:00+00:00,-320.9391917748148
2025-05-20 15:00:00+00:00,-320.9391917748148
2025-05-20 16:00:00+00:00,-320.9391917748148
2025-05-20 17:00:00+00:00,-320.9391917748148
2025-05-20 18:00:00+00:00,-320.9391917748148
2025-05-20 19:00:00+00:00,-320.9391917748148
2025-05-21 13:00:00+00:00,-320.9391917748148
2025-05-21 14:00:00+00:00,-320.9391917748148
2025-05-21 15:00:00+00:00,-320.9391917748148
2025-05-21 16:00:00+00:00,-320.9391917748148
2025-05-21 17:00:00+00:00,-320.9391917748148
2025-05-21 18:00:00+00:00,-320.9391917748148
2025-05-21 19:00:00+00:00,-320.9391917748148
2025-05-22 13:00:00+00:00,-320.9391917748148
2025-05-22 14:00:00+00:00,-320.9391917748148
2025-05-22 15:00:00+00:00,-320.9391917748148
2025-05-22 16:00:00+00:00,-320.9391917748148
2025-05-22 17:00:00+00:00,-320.9391917748148
2025-05-22 18:00:00+00:00,-320.9391917748148
2025-05-22 19:00:00+00:00,-320.9391917748148
2025-05-23 13:00:00+00:00,-320.9391917748148
2025-05-23 14:00:00+00:00,-320.9391917748148
2025-05-23 15:00:00+00:00,-320.9391917748148
2025-05-23 16:00:00+00:00,-320.9391917748148
2025-05-23 17:00:00+00:00,-320.9391917748148
2025-05-23 18:00:00+00:00,-320.9391917748148
2025-05-23 19:00:00+00:00,-320.9391917748148
2025-05-27 13:00:00+00:00,-320.9391917748148
2025-05-27 14:00:00+00:00,-320.9391917748148
2025-05-27 15:00:00+00:00,-320.9391917748148
2025-05-27 16:00:00+00:00,-320.9391917748148
2025-05-27 17:00:00+00:00,-320.9391917748148
2025-05-27 18:00:00+00:00,-320.9391917748148
2025-05-27 19:00:00+00:00,-320.9391917748148
2025-05-28 13:00:00+00:00,-320.9391917748148
2025-05-28 14:00:00+00:00,-320.9391917748148
2025-05-28 15:00:00+00:00,-320.9391917748148
2025-05-28 16:00:00+00:00,-320.9391917748148
2025-05-28 17:00:00+00:00,-320.9391917748148
2025-05-28 18:00:00+00:00,-320.9391917748148
2025-05-28 19:00:00+00:00,-320.9391917748148
2025-05-29 13:00:00+00:00,-320.9391917748148
2025-05-29 14:00:00+00:00,-320.9391917748148
2025-05-29 15:00:00+00:00,-320.9391917748148
2025-05-29 16:00:00+00:00,-320.9391917748148
2025-05-29 17:00:00+00:00,-320.9391917748148
2025-05-29 18:00:00+00:00,-320.9391917748148
2025-05-29 19:00:00+00:00,-320.9391917748148
2025-05-30 13:00:00+00:00,-320.9391917748148
2025-05-30 14:00:00+00:00,-320.9391917748148
2025-05-30 15:00:00+00:00,-320.9391917748148
2025-05-30 16:00:00+00:00,-320.9391917748148
2025-05-30 17:00:00+00:00,-320.9391917748148
2025-05-30 18:00:00+00:00,-320.9391917748148
2025-05-30 19:00:00+00:00,-320.9391917748148
2025-06-02 13:00:00+00:00,-320.9391917748148
2025-06-02 14:00:00+00:00,-320.9391917748148
2025-06-02 15:00:00+00:00,-320.9391917748148
2025-06-02 16:00:00+00:00,-320.9391917748148
2025-06-02 17:00:00+00:00,-320.9391917748148
2025-06-02 18:00:00+00:00,-320.9391917748148
2025-06-02 19:00:00+00:00,-320.9391917748148
2025-06-03 13:00:00+00:00,-320.9391917748148
2025-06-03 14:00:00+00:00,-320.9391917748148
2025-06-03 15:00:00+00:00,-320.9391917748148
2025-06-03 16:00:00+00:00,-320.9391917748148
2025-06-03 17:00:00+00:00,-320.9391917748148
2025-06-03 18:00:00+00:00,-320.9391917748148
2025-06-03 19:00:00+00:00,-320.9391917748148
2025-06-04 13:00:00+00:00,-320.9391917748148
2025-06-04 14:00:00+00:00,-320.9391917748148
2025-06-04 15:00:00+00:00,-320.9391917748148
2025-06-04 16:00:00+00:00,-320.9391917748148
2025-06-04 17:00:00+00:00,-320.9391917748148
2025-06-04 18:00:00+00:00,-320.9391917748148
2025-06-04 19:00:00+00:00,-320.9391917748148
2025-06-05 13:00:00+00:00,-320.9391917748148
2025-06-05 14:00:00+00:00,-320.9391917748148
2025-06-05 15:00:00+00:00,-320.9391917748148
2025-06-05 16:00:00+00:00,-320.9391917748148
2025-06-05 17:00:00+00:00,-320.9391917748148
2025-06-05 18:00:00+00:00,-320.9391917748148
2025-06-05 19:00:00+00:00,-320.9391917748148
2025-06-06 13:00:00+00:00,-320.9391917748148
2025-06-06 14:00:00+00:00,-320.9391917748148
2025-06-06 15:00:00+00:00,-320.9391917748148
2025-06-06 16:00:00+00:00,-320.9391917748148
2025-06-06 17:00:00+00:00,-320.9391917748148
2025-06-06 18:00:00+00:00,-320.9391917748148
2025-06-06 19:00:00+00:00,-320.9391917748148
2025-06-09 13:00:00+00:00,-320.9391917748148
2025-06-09 14:00:00+00:00,-320.9391917748148
2025-06-09 15:00:00+00:00,-320.9391917748148
2025-06-09 16:00:00+00:00,-320.9391917748148
2025-06-09 17:00:00+00:00,-320.9391917748148
2025-06-09 18:00:00+00:00,-320.9391917748148
2025-06-09 19:00:00+00:00,-320.9391917748148
2025-06-10 13:00:00+00:00,-320.9391917748148
2025-06-10 14:00:00+00:00,-320.9391917748148
2025-06-10 15:00:00+00:00,-320.9391917748148
2025-06-10 16:00:00+00:00,-320.9391917748148
2025-06-10 17:00:00+00:00,-320.9391917748148
2025-06-10 18:00:00+00:00,-320.9391917748148
2025-06-10 19:00:00+00:00,-320.9391917748148
2025-06-11 13:00:00+00:00,-320.9391917748148
2025-06-11 14:00:00+00:00,-320.9391917748148
2025-06-11 15:00:00+00:00,-320.9391917748148
2025-06-11 16:00:00+00:00,-320.9391917748148
2025-06-11 17:00:00+00:00,-320.9391917748148
2025-06-11 18:00:00+00:00,-320.9391917748148
2025-06-11 19:00:00+00:00,-320.9391917748148
2025-06-12 13:00:00+00:00,-320.9391917748148
2025-06-12 14:00:00+00:00,-320.9391917748148
2025-06-12 15:00:00+00:00,-320.9391917748148
2025-06-12 16:00:00+00:00,-320.9391917748148
2025-06-12 17:00:00+00:00,-320.9391917748148
2025-06-12 18:00:00+00:00,-320.9391917748148
2025-06-12 19:00:00+00:00,-320.9391917748148
2025-06-13 13:00:00+00:00,-320.9391917748148
2025-06-13 14:00:00+00:00,-320.9391917748148
2025-06-13 15:00:00+00:00,-320.9391917748148
2025-06-13 16:00:00+00:00,-320.9391917748148
2025-06-13 17:00:00+00:00,-320.9391917748148
2025-06-13 18:00:00+00:00,-320.9391917748148
2025-06-13 19:00:00+00:00,-320.9391917748148
2025-06-16 13:00:00+00:00,-320.9391917748148
2025-06-16 14:00:00+00:00,-320.9391917748148
2025-06-16 15:00:00+00:00,-320.9391917748148
2025-06-16 16:00:00+00:00,-320.9391917748148
2025-06-16 17:00:00+00:00,-320.9391917748148
2025-06-16 18:00:00+00:00,-320.9391917748148
2025-06-16 19:00:00+00:00,-320.9391917748148
2025-06-17 13:00:00+00:00,-320.9391917748148
2025-06-17 14:00:00+00:00,-320.9391917748148
2025-06-17 15:00:00+00:00,-320.9391917748148
2025-06-17 16:00:00+00:00,-320.9391917748148
2025-06-17 17:00:00+00:00,-320.9391917748148
2025-06-17 18:00:00+00:00,-320.9391917748148
2025-06-17 19:00:00+00:00,-320.9391917748148
2025-06-18 13:00:00+00:00,-320.9391917748148
2025-06-18 14:00:00+00:00,-320.9391917748148
2025-06-18 15:00:00+00:00,-320.9391917748148
2025-06-18 16:00:00+00:00,-320.9391917748148
2025-06-18 17:00:00+00:00,-320.9391917748148
2025-06-18 18:00:00+00:00,-320.9391917748148
2025-06-18 19:00:00+00:00,-320.9391917748148
2025-06-20 13:00:00+00:00,-320.9391917748148
2025-06-20 14:00:00+00:00,-320.9391917748148
2025-06-20 15:00:00+00:00,-320.9391917748148
2025-06-20 16:00:00+00:00,-320.9391917748148
2025-06-20 17:00:00+00:00,-320.9391917748148
2025-06-20 18:00:00+00:00,-320.9391917748148
2025-06-20 19:00:00+00:00,-320.9391917748148
2025-06-23 13:00:00+00:00,-320.9391917748148
2025-06-23 14:00:00+00:00,-320.9391917748148
2025-06-23 15:00:00+00:00,-320.9391917748148
2025-06-23 16:00:00+00:00,-320.9391917748148
2025-06-23 17:00:00+00:00,-320.9391917748148
2025-06-23 18:00:00+00:00,-320.9391917748148
2025-06-23 19:00:00+00:00,-320.9391917748148
2025-06-24 13:00:00+00:00,-320.9391917748148
2025-06-24 14:00:00+00:00,-320.9391917748148
2025-06-24 15:00:00+00:00,-320.9391917748148
2025-06-24 16:00:00+00:00,-320.9391917748148
2025-06-24 17:00:00+00:00,-320.9391917748148
2025-06-24 18:00:00+00:00,-320.9391917748148
2025-06-24 19:00:00+00:00,-320.9391917748148
2025-06-25 13:00:00+00:00,-320.9391917748148
2025-06-25 14:00:00+00:00,-320.9391917748148
2025-06-25 15:00:00+00:00,-320.9391917748148
2025-06-25 16:00:00+00:00,-320.9391917748148
2025-06-25 17:00:00+00:00,-320.9391917748148
2025-06-25 18:00:00+00:00,-320.9391917748148
2025-06-25 19:00:00+00:00,-320.9391917748148
2025-06-26 13:00:00+00:00,-320.9391917748148
2025-06-26 14:00:00+00:00,-320.9391917748148
2025-06-26 15:00:00+00:00,-320.9391917748148
2025-06-26 16:00:00+00:00,-320.9391917748148
2025-06-26 17:00:00+00:00,-320.9391917748148
2025-06-26 18:00:00+00:00,-320.9391917748148
2025-06-26 19:00:00+00:00,-320.9391917748148
2025-06-27 13:00:00+00:00,-320.9391917748148
2025-06-27 14:00:00+00:00,-320.9391917748148
2025-06-27 15:00:00+00:00,-320.9391917748148
2025-06-27 16:00:00+00:00,-320.9391917748148
2025-06-27 17:00:00+00:00,-320.9391917748148
2025-06-27 18:00:00+00:00,-320.9391917748148
2025-06-27 19:00:00+00:00,-320.9391917748148
2025-06-30 13:00:00+00:00,-320.9391917748148
2025-06-30 14:00:00+00:00,-320.9391917748148
2025-06-30 15:00:00+00:00,-320.9391917748148
2025-06-30 16:00:00+00:00,-320.9391917748148
2025-06-30 17:00:00+00:00,-320.9391917748148
2025-06-30 18:00:00+00:00,-320.9391917748148
2025-06-30 19:00:00+00:00,-320.9391917748148
2025-07-01 13:00:00+00:00,-320.9391917748148
2025-07-01 14:00:00+00:00,-320.9391917748148
2025-07-01 15:00:00+00:00,-320.9391917748148
2025-07-01 16:00:00+00:00,-320.9391917748148
2025-07-01 17:00:00+00:00,-320.9391917748148
2025-07-01 18:00:00+00:00,-320.9391917748148
2025-07-01 19:00:00+00:00,-320.9391917748148
2025-07-02 13:00:00+00:00,-320.9391917748148
2025-07-02 14:00:00+00:00,-320.9391917748148
2025-07-02 15:00:00+00:00,-320.9391917748148
2025-07-02 16:00:00+00:00,-320.9391917748148
2025-07-02 17:00:00+00:00,-320.9391917748148
2025-07-02 18:00:00+00:00,-320.9391917748148
2025-07-02 19:00:00+00:00,-320.9391917748148
2025-07-03 13:00:00+00:00,-320.9391917748148
2025-07-03 14:00:00+00:00,-320.9391917748148
2025-07-03 15:00:00+00:00,-320.9391917748148
2025-07-07 13:00:00+00:00,-320.9391917748148
2025-07-07 14:00:00+00:00,-320.9391917748148
2025-07-07 15:00:00+00:00,-320.9391917748148
2025-07-07 16:00:00+00:00,-320.9391917748148
2025-07-07 17:00:00+00:00,-320.9391917748148
2025-07-07 18:00:00+00:00,-320.9391917748148
2025-07-07 19:00:00+00:00,-320.9391917748148
2025-07-08 13:00:00+00:00,-320.9391917748148
2025-07-08 14:00:00+00:00,-320.9391917748148
2025-07-08 15:00:00+00:00,-320.9391917748148
2025-07-08 16:00:00+00:00,-320.9391917748148
2025-07-08 17:00:00+00:00,-320.9391917748148
2025-07-08 18:00:00+00:00,-320.9391917748148
2025-07-08 19:00:00+00:00,-320.9391917748148
2025-07-09 13:00:00+00:00,-320.9391917748148
2025-07-09 14:00:00+00:00,-320.9391917748148
2025-07-09 15:00:00+00:00,-320.9391917748148
2025-07-09 16:00:00+00:00,-320.9391917748148
2025-07-09 17:00:00+00:00,-320.9391917748148
2025-07-09 18:00:00+00:00,-320.9391917748148
2025-07-09 19:00:00+00:00,-320.9391917748148
2025-07-10 13:00:00+00:00,-320.9391917748148
2025-07-10 14:00:00+00:00,-320.9391917748148
2025-07-10 15:00:00+00:00,-320.9391917748148
2025-07-10 16:00:00+00:00,-320.9391917748148
2025-07-10 17:00:00+00:00,-320.9391917748148
2025-07-10 18:00:00+00:00,-320.9391917748148
2025-07-10 19:00:00+00:00,-320.9391917748148
2025-07-11 13:00:00+00:00,-320.9391917748148
2025-07-11 14:00:00+00:00,-320.9391917748148
2025-07-11 15:00:00+00:00,-320.9391917748148
2025-07-11 16:00:00+00:00,-320.9391917748148
2025-07-11 17:00:00+00:00,-320.9391917748148
2025-07-11 18:00:00+00:00,-320.9391917748148
2025-07-11 19:00:00+00:00,-320.9391917748148
2025-07-14 13:00:00+00:00,-320.9391917748148
2025-07-14 14:00:00+00:00,-320.9391917748148
2025-07-14 15:00:00+00:00,-320.9391917748148
2025-07-14 16:00:00+00:00,-320.9391917748148
2025-07-14 17:00:00+00:00,-320.9391917748148
2025-07-14 18:00:00+00:00,-320.9391917748148
2025-07-14 19:00:00+00:00,-320.9391917748148
2025-07-15 13:00:00+00:00,-320.9391917748148
2025-07-15 14:00:00+00:00,-320.9391917748148
2025-07-15 15:00:00+00:00,-320.9391917748148
2025-07-15 16:00:00+00:00,-320.9391917748148
2025-07-15 17:00:00+00:00,-320.9391917748148
2025-07-15 18:00:00+00:00,-320.9391917748148
2025-07-15 19:00:00+00:00,-320.9391917748148
2025-07-16 13:00:00+00:00,-320.9391917748148
2025-07-16 14:00:00+00:00,-320.9391917748148
2025-07-16 15:00:00+00:00,-320.9391917748148
2025-07-16 16:00:00+00:00,-320.9391917748148
2025-07-16 17:00:00+00:00,-320.9391917748148
2025-07-16 18:00:00+00:00,-320.9391917748148
2025-07-16 19:00:00+00:00,-320.9391917748148
2025-07-17 13:00:00+00:00,-320.9391917748148
2025-07-17 14:00:00+00:00,-320.9391917748148
2025-07-17 15:00:00+00:00,-320.9391917748148
2025-07-17 16:00:00+00:00,-320.9391917748148
2025-07-17 17:00:00+00:00,-320.9391917748148
2025-07-17 18:00:00+00:00,-320.9391917748148
2025-07-17 19:00:00+00:00,-320.9391917748148
2025-07-18 13:00:00+00:00,-320.9391917748148
2025-07-18 14:00:00+00:00,-320.9391917748148
2025-07-18 15:00:00+00:00,-320.9391917748148
2025-07-18 16:00:00+00:00,-320.9391917748148
2025-07-18 17:00:00+00:00,-320.9391917748148
2025-07-18 18:00:00+00:00,-320.9391917748148
2025-07-18 19:00:00+00:00,-320.9391917748148
2025-07-21 13:00:00+00:00,-320.9391917748148
2025-07-21 14:00:00+00:00,-320.9391917748148
2025-07-21 15:00:00+00:00,-320.9391917748148
2025-07-21 16:00:00+00:00,-320.9391917748148
2025-07-21 17:00:00+00:00,-320.9391917748148
2025-07-21 18:00:00+00:00,-320.9391917748148
2025-07-21 19:00:00+00:00,-320.9391917748148
2025-07-22 13:00:00+00:00,-320.9391917748148
2025-07-22 14:00:00+00:00,-320.9391917748148
2025-07-22 15:00:00+00:00,-320.9391917748148
2025-07-22 16:00:00+00:00,-320.9391917748148
2025-07-22 17:00:00+00:00,-320.9391917748148
2025-07-22 18:00:00+00:00,-320.9391917748148
2025-07-22 19:00:00+00:00,-320.9391917748148
2025-07-23 13:00:00+00:00,-320.9391917748148
2025-07-23 14:00:00+00:00,-320.9391917748148
2025-07-23 15:00:00+00:00,-320.9391917748148
2025-07-23 16:00:00+00:00,-320.9391917748148
2025-07-23 17:00:00+00:00,-320.9391917748148
2025-07-23 18:00:00+00:00,-320.9391917748148
2025-07-23 19:00:00+00:00,-320.9391917748148
2025-07-24 13:00:00+00:00,-320.9391917748148
2025-07-24 14:00:00+00:00,-320.9391917748148
2025-07-24 15:00:00+00:00,-320.9391917748148
2025-07-24 16:00:00+00:00,-320.9391917748148
2025-07-24 17:00:00+00:00,-320.9391917748148
2025-07-24 18:00:00+00:00,-320.9391917748148
2025-07-24 19:00:00+00:00,-320.9391917748148
2025-07-25 13:00:00+00:00,-320.9391917748148
2025-07-25 14:00:00+00:00,-320.9391917748148
2025-07-25 15:00:00+00:00,-320.9391917748148
2025-07-25 16:00:00+00:00,-320.9391917748148
2025-07-25 17:00:00+00:00,-320.9391917748148
2025-07-25 18:00:00+00:00,-320.9391917748148
2025-07-25 19:00:00+00:00,-320.9391917748148
2025-07-28 13:00:00+00:00,-320.9391917748148
2025-07-28 14:00:00+00:00,-320.9391917748148
2025-07-28 15:00:00+00:00,-320.9391917748148
2025-07-28 16:00:00+00:00,-320.9391917748148
2025-07-28 17:00:00+00:00,-320.9391917748148
2025-07-28 18:00:00+00:00,-320.9391917748148
2025-07-28 19:00:00+00:00,-320.9391917748148
2025-07-29 13:00:00+00:00,-320.9391917748148
2025-07-29 14:00:00+00:00,-320.9391917748148
2025-07-29 15:00:00+00:00,-320.9391917748148
2025-07-29 16:00:00+00:00,-320.9391917748148
2025-07-29 17:00:00+00:00,-320.9391917748148
2025-07-29 18:00:00+00:00,-320.9391917748148
2025-07-29 19:00:00+00:00,-320.9391917748148
2025-07-30 13:00:00+00:00,-320.9391917748148
2025-07-30 14:00:00+00:00,-320.9391917748148
2025-07-30 15:00:00+00:00,-320.9391917748148
2025-07-30 16:00:00+00:00,-320.9391917748148
2025-07-30 17:00:00+00:00,-320.9391917748148
2025-07-30 18:00:00+00:00,-320.9391917748148
2025-07-30 19:00:00+00:00,-320.9391917748148
2025-07-31 13:00:00+00:00,-320.9391917748148
2025-07-31 14:00:00+00:00,-320.9391917748148
2025-07-31 15:00:00+00:00,-320.9391917748148
2025-07-31 16:00:00+00:00,-320.9391917748148
2025-07-31 17:00:00+00:00,-320.9391917748148
2025-07-31 18:00:00+00:00,-320.9391917748148
2025-07-31 19:00:00+00:00,-320.9391917748148
2025-08-01 13:00:00+00:00,-320.9391917748148
2025-08-01 14:00:00+00:00,-320.9391917748148
2025-08-01 15:00:00+00:00,-320.9391917748148
2025-08-01 16:00:00+00:00,-320.9391917748148
2025-08-01 17:00:00+00:00,-320.9391917748148
2025-08-01 18:00:00+00:00,-320.9391917748148
2025-08-01 19:00:00+00:00,-320.9391917748148
2025-08-04 13:00:00+00:00,-320.9391917748148
2025-08-04 14:00:00+00:00,-320.9391917748148
2025-08-04 15:00:00+00:00,-320.9391917748148
2025-08-04 16:00:00+00:00,-320.9391917748148
2025-08-04 17:00:00+00:00,-320.9391917748148
2025-08-04 18:00:00+00:00,-320.9391917748148
2025-08-04 19:00:00+00:00,-320.9391917748148
2025-08-05 13:00:00+00:00,-320.9391917748148
2025-08-05 14:00:00+00:00,-320.9391917748148
2025-08-05 15:00:00+00:00,-320.9391917748148
2025-08-05 16:00:00+00:00,-320.9391917748148
2025-08-05 17:00:00+00:00,-320.9391917748148
2025-08-05 18:00:00+00:00,-320.9391917748148
2025-08-05 19:00:00+00:00,-320.9391917748148
2025-08-06 13:00:00+00:00,-320.9391917748148
2025-08-06 14:00:00+00:00,-320.9391917748148
2025-08-06 15:00:00+00:00,-320.9391917748148
2025-08-06 16:00:00+00:00,-320.9391917748148
2025-08-06 17:00:00+00:00,-320.9391917748148
2025-08-06 18:00:00+00:00,-320.9391917748148
2025-08-06 19:00:00+00:00,-320.9391917748148
2025-08-07 13:00:00+00:00,-320.9391917748148
2025-08-07 14:00:00+00:00,-320.9391917748148
2025-08-07 15:00:00+00:00,-320.9391917748148
2025-08-07 16:00:00+00:00,-320.9391917748148
2025-08-07 17:00:00+00:00,-320.9391917748148
2025-08-07 18:00:00+00:00,-320.9391917748148
2025-08-07 19:00:00+00:00,-320.9391917748148
2025-08-08 13:00:00+00:00,-320.9391917748148
2025-08-08 14:00:00+00:00,-320.9391917748148
2025-08-08 15:00:00+00:00,-320.9391917748148
2025-08-08 16:00:00+00:00,-320.9391917748148
2025-08-08 17:00:00+00:00,-320.9391917748148
2025-08-08 18:00:00+00:00,-320.9391917748148
2025-08-08 19:00:00+00:00,-320.9391917748148
2025-08-11 13:00:00+00:00,-320.9391917748148
2025-08-11 14:00:00+00:00,-320.9391917748148
2025-08-11 15:00:00+00:00,-320.9391917748148
2025-08-11 16:00:00+00:00,-320.9391917748148
2025-08-11 17:00:00+00:00,-320.9391917748148
2025-08-11 18:00:00+00:00,-320.9391917748148
2025-08-11 19:00:00+00:00,-320.9391917748148
2025-08-12 13:00:00+00:00,-320.9391917748148
2025-08-12 14:00:00+00:00,-320.9391917748148
2025-08-12 15:00:00+00:00,-320.9391917748148
2025-08-12 16:00:00+00:00,-320.9391917748148
2025-08-12 17:00:00+00:00,-320.9391917748148
2025-08-12 18:00:00+00:00,-320.9391917748148
2025-08-12 19:00:00+00:00,-320.9391917748148
2025-08-13 13:00:00+00:00,-320.9391917748148
2025-08-13 14:00:00+00:00,-320.9391917748148
2025-08-13 15:00:00+00:00,-320.9391917748148
2025-08-13 16:00:00+00:00,-320.9391917748148
2025-08-13 17:00:00+00:00,-320.9391917748148
2025-08-13 18:00:00+00:00,-320.9391917748148
2025-08-13 19:00:00+00:00,-320.9391917748148
2025-08-14 13:00:00+00:00,-320.9391917748148
2025-08-14 14:00:00+00:00,-320.9391917748148
2025-08-14 15:00:00+00:00,-320.9391917748148
2025-08-14 16:00:00+00:00,-320.9391917748148
2025-08-14 17:00:00+00:00,-320.9391917748148
2025-08-14 18:00:00+00:00,-320.9391917748148
2025-08-14 19:00:00+00:00,-320.9391917748148
2025-08-15 13:00:00+00:00,-320.9391917748148
2025-08-15 14:00:00+00:00,-320.9391917748148
2025-08-15 15:00:00+00:00,-320.9391917748148
2025-08-15 16:00:00+00:00,-320.9391917748148
2025-08-15 17:00:00+00:00,-320.9391917748148
2025-08-15 18:00:00+00:00,-320.9391917748148
2025-08-15 19:00:00+00:00,-320.9391917748148
2025-08-18 13:00:00+00:00,-320.9391917748148
2025-08-18 14:00:00+00:00,-320.9391917748148
2025-08-18 15:00:00+00:00,-320.9391917748148
2025-08-18 16:00:00+00:00,-320.9391917748148
2025-08-18 17:00:00+00:00,-320.9391917748148
2025-08-18 18:00:00+00:00,-320.9391917748148
2025-08-18 19:00:00+00:00,-320.9391917748148
2025-08-19 13:00:00+00:00,-320.9391917748148
2025-08-19 14:00:00+00:00,-320.9391917748148
2025-08-19 15:00:00+00:00,-320.9391917748148
2025-08-19 16:00:00+00:00,-320.9391917748148
2025-08-19 17:00:00+00:00,-320.9391917748148
2025-08-19 18:00:00+00:00,-320.9391917748148
2025-08-19 19:00:00+00:00,-320.9391917748148
2025-08-20 13:00:00+00:00,-320.9391917748148
2025-08-20 14:00:00+00:00,-320.9391917748148
2025-08-20 15:00:00+00:00,-320.9391917748148
2025-08-20 16:00:00+00:00,-320.9391917748148
2025-08-20 17:00:00+00:00,-320.9391917748148
2025-08-20 18:00:00+00:00,-320.9391917748148
2025-08-20 19:00:00+00:00,-320.9391917748148
2025-08-21 13:00:00+00:00,-320.9391917748148
2025-08-21 14:00:00+00:00,-320.9391917748148
2025-08-21 15:00:00+00:00,-320.9391917748148
2025-08-21 16:00:00+00:00,-320.9391917748148
2025-08-21 17:00:00+00:00,-320.9391917748148
2025-08-21 18:00:00+00:00,-320.9391917748148
2025-08-21 19:00:00+00:00,-320.9391917748148
2025-08-22 13:00:00+00:00,-320.9391917748148
2025-08-22 14:00:00+00:00,-320.9391917748148
2025-08-22 15:00:00+00:00,-320.9391917748148
2025-08-22 16:00:00+00:00,-320.9391917748148
2025-08-22 17:00:00+00:00,-320.9391917748148
2025-08-22 18:00:00+00:00,-320.9391917748148
2025-08-22 19:00:00+00:00,-320.9391917748148
2025-08-25 13:00:00+00:00,-320.9391917748148
2025-08-25 14:00:00+00:00,-320.9391917748148
2025-08-25 15:00:00+00:00,-320.9391917748148
2025-08-25 16:00:00+00:00,-320.9391917748148
2025-08-25 17:00:00+00:00,-320.9391917748148
2025-08-25 18:00:00+00:00,-320.9391917748148
2025-08-25 19:00:00+00:00,-320.9391917748148
2025-08-26 13:00:00+00:00,-320.9391917748148
2025-08-26 14:00:00+00:00,-320.9391917748148
2025-08-26 15:00:00+00:00,-320.9391917748148
2025-08-26 16:00:00+00:00,-320.9391917748148
2025-08-26 17:00:00+00:00,-320.9391917748148
2025-08-26 18:00:00+00:00,-320.9391917748148
2025-08-26 19:00:00+00:00,-320.9391917748148
2025-08-27 13:00:00+00:00,-320.9391917748148
2025-08-27 14:00:00+00:00,-320.9391917748148
2025-08-27 15:00:00+00:00,-320.9391917748148
2025-08-27 16:00:00+00:00,-320.9391917748148
2025-08-27 17:00:00+00:00,-320.9391917748148
2025-08-27 18:00:00+00:00,-320.9391917748148
2025-08-27 19:00:00+00:00,-320.9391917748148
2025-08-28 13:00:00+00:00,-320.9391917748148
2025-08-28 14:00:00+00:00,-320.9391917748148
2025-08-28 15:00:00+00:00,-320.9391917748148
2025-08-28 16:00:00+00:00,-320.9391917748148
2025-08-28 17:00:00+00:00,-320.9391917748148
2025-08-28 18:00:00+00:00,-320.9391917748148
2025-08-28 19:00:00+00:00,-320.9391917748148
2025-08-29 13:00:00+00:00,-320.9391917748148
2025-08-29 14:00:00+00:00,-320.9391917748148
2025-08-29 15:00:00+00:00,-320.9391917748148
2025-08-29 16:00:00+00:00,-320.9391917748148
2025-08-29 17:00:00+00:00,-320.9391917748148
2025-08-29 18:00:00+00:00,-320.9391917748148
2025-08-29 19:00:00+00:00,-320.9391917748148
2025-09-02 13:00:00+00:00,-320.9391917748148
2025-09-02 14:00:00+00:00,-320.9391917748148
2025-09-02 15:00:00+00:00,-320.9391917748148
2025-09-02 16:00:00+00:00,-320.9391917748148
2025-09-02 17:00:00+00:00,-320.9391917748148
2025-09-02 18:00:00+00:00,-320.9391917748148
2025-09-02 19:00:00+00:00,-320.9391917748148
2025-09-03 13:00:00+00:00,-320.9391917748148
2025-09-03 14:00:00+00:00,-320.9391917748148
2025-09-03 15:00:00+00:00,-320.9391917748148
2025-09-03 16:00:00+00:00,-320.9391917748148
2025-09-03 17:00:00+00:00,-320.9391917748148
2025-09-03 18:00:00+00:00,-320.9391917748148
2025-09-03 19:00:00+00:00,-320.9391917748148
2025-09-04 13:00:00+00:00,-320.9391917748148
2025-09-04 14:00:00+00:00,-320.9391917748148
2025-09-04 15:00:00+00:00,-320.9391917748148
2025-09-04 16:00:00+00:00,-320.9391917748148
2025-09-04 17:00:00+00:00,-320.9391917748148
2025-09-04 18:00:00+00:00,-320.9391917748148
2025-09-04 19:00:00+00:00,-320.9391917748148
2025-09-05 13:00:00+00:00,-320.9391917748148
2025-09-05 14:00:00+00:00,-320.9391917748148
2025-09-05 15:00:00+00:00,-320.9391917748148
2025-09-05 16:00:00+00:00,-320.9391917748148
2025-09-05 17:00:00+00:00,-320.9391917748148
2025-09-05 18:00:00+00:00,-320.9391917748148
2025-09-05 19:00:00+00:00,-320.9391917748148
2025-09-08 13:00:00+00:00,-320.9391917748148
2025-09-08 14:00:00+00:00,-320.9391917748148
2025-09-08 15:00:00+00:00,-320.9391917748148
2025-09-08 16:00:00+00:00,-320.9391917748148
2025-09-08 17:00:00+00:00,-320.9391917748148
2025-09-08 18:00:00+00:00,-320.9391917748148
2025-09-08 19:00:00+00:00,-320.9391917748148
2025-09-09 13:00:00+00:00,-320.9391917748148
2025-09-09 14:00:00+00:00,-320.9391917748148
2025-09-09 15:00:00+00:00,-320.9391917748148
2025-09-09 16:00:00+00:00,-320.9391917748148
2025-09-09 17:00:00+00:00,-320.9391917748148
2025-09-09 18:00:00+00:00,-320.9391917748148
2025-09-09 19:00:00+00:00,-320.9391917748148
2025-09-10 13:00:00+00:00,-320.9391917748148
2025-09-10 14:00:00+00:00,-320.9391917748148
2025-09-10 15:00:00+00:00,-320.9391917748148
2025-09-10 16:00:00+00:00,-320.9391917748148
2025-09-10 17:00:00+00:00,-320.9391917748148
2025-09-10 18:00:00+00:00,-320.9391917748148
2025-09-10 19:00:00+00:00,-320.9391917748148
2025-09-11 13:00:00+00:00,-320.9391917748148
2025-09-11 14:00:00+00:00,-320.9391917748148
2025-09-11 15:00:00+00:00,-320.9391917748148
2025-09-11 16:00:00+00:00,-320.9391917748148
2025-09-11 17:00:00+00:00,-320.9391917748148
2025-09-11 18:00:00+00:00,-320.9391917748148
2025-09-11 19:00:00+00:00,-320.9391917748148
2025-09-12 13:00:00+00:00,-320.9391917748148
2025-09-12 14:00:00+00:00,-320.9391917748148
2025-09-12 15:00:00+00:00,-320.9391917748148
2025-09-12 16:00:00+00:00,-320.9391917748148
2025-09-12 17:00:00+00:00,-320.9391917748148
2025-09-12 18:00:00+00:00,-320.9391917748148
2025-09-12 19:00:00+00:00,-320.9391917748148
2025-09-15 13:00:00+00:00,-320.9391917748148
2025-09-15 14:00:00+00:00,-320.9391917748148
2025-09-15 15:00:00+00:00,-320.9391917748148
2025-09-15 16:00:00+00:00,-320.9391917748148
2025-09-15 17:00:00+00:00,-320.9391917748148
2025-09-15 18:00:00+00:00,-320.9391917748148
2025-09-15 19:00:00+00:00,-320.9391917748148
2025-09-16 13:00:00+00:00,-320.9391917748148
2025-09-16 14:00:00+00:00,-320.9391917748148
2025-09-16 15:00:00+00:00,-320.9391917748148
2025-09-16 16:00:00+00:00,-320.9391917748148
2025-09-16 17:00:00+00:00,-320.9391917748148
2025-09-16 18:00:00+00:00,-320.9391917748148
2025-09-16 19:00:00+00:00,-320.9391917748148
2025-09-17 13:00:00+00:00,-320.9391917748148
2025-09-17 14:00:00+00:00,-320.9391917748148
2025-09-17 15:00:00+00:00,-320.9391917748148
2025-09-17 16:00:00+00:00,-320.9391917748148
2025-09-17 17:00:00+00:00,-320.9391917748148
2025-09-17 18:00:00+00:00,-320.9391917748148
2025-09-17 19:00:00+00:00,-320.9391917748148
2025-09-18 13:00:00+00:00,-320.9391917748148
2025-09-18 14:00:00+00:00,-320.9391917748148
2025-09-18 15:00:00+00:00,-320.9391917748148
2025-09-18 16:00:00+00:00,-320.9391917748148
2025-09-18 17:00:00+00:00,-320.9391917748148
2025-09-18 18:00:00+00:00,-320.9391917748148
2025-09-18 19:00:00+00:00,-320.9391917748148
2025-09-19 13:00:00+00:00,-320.9391917748148
2025-09-19 14:00:00+00:00,-320.9391917748148
2025-09-19 15:00:00+00:00,-320.9391917748148
2025-09-19 16:00:00+00:00,-320.9391917748148
2025-09-19 17:00:00+00:00,-320.9391917748148
2025-09-19 18:00:00+00:00,-320.9391917748148
2025-09-19 19:00:00+00:00,-320.9391917748148
2025-09-22 13:00:00+00:00,-320.9391917748148
2025-09-22 14:00:00+00:00,-320.9391917748148
2025-09-22 15:00:00+00:00,-320.9391917748148
2025-09-22 16:00:00+00:00,-320.9391917748148
2025-09-22 17:00:00+00:00,-320.9391917748148
2025-09-22 18:00:00+00:00,-320.9391917748148
2025-09-22 19:00:00+00:00,-320.9391917748148
2025-09-23 13:00:00+00:00,-320.9391917748148
2025-09-23 14:00:00+00:00,-320.9391917748148
2025-09-23 15:00:00+00:00,-320.9391917748148
2025-09-23 16:00:00+00:00,-320.9391917748148
2025-09-23 17:00:00+00:00,-320.9391917748148
2025-09-23 18:00:00+00:00,-320.9391917748148
2025-09-23 19:00:00+00:00,-320.9391917748148
2025-09-24 13:00:00+00:00,-320.9391917748148
