Date,0
2024-01-02 14:00:00+00:00,0.0
2024-01-02 15:00:00+00:00,0.0
2024-01-02 16:00:00+00:00,0.0
2024-01-02 17:00:00+00:00,0.0
2024-01-02 18:00:00+00:00,0.0
2024-01-02 19:00:00+00:00,0.0
2024-01-02 20:00:00+00:00,0.0
2024-01-03 14:00:00+00:00,0.0
2024-01-03 15:00:00+00:00,0.0
2024-01-03 16:00:00+00:00,0.0
2024-01-03 17:00:00+00:00,0.0
2024-01-03 18:00:00+00:00,0.0
2024-01-03 19:00:00+00:00,0.0
2024-01-03 20:00:00+00:00,0.0
2024-01-04 14:00:00+00:00,0.0
2024-01-04 15:00:00+00:00,0.0
2024-01-04 16:00:00+00:00,0.0
2024-01-04 17:00:00+00:00,0.0
2024-01-04 18:00:00+00:00,0.0
2024-01-04 19:00:00+00:00,0.0
2024-01-04 20:00:00+00:00,0.0
2024-01-05 14:00:00+00:00,0.0
2024-01-05 15:00:00+00:00,0.0
2024-01-05 16:00:00+00:00,0.0
2024-01-05 17:00:00+00:00,0.0
2024-01-05 18:00:00+00:00,0.0
2024-01-05 19:00:00+00:00,0.0
2024-01-05 20:00:00+00:00,0.0
2024-01-08 14:00:00+00:00,0.0
2024-01-08 15:00:00+00:00,0.0
2024-01-08 16:00:00+00:00,0.0
2024-01-08 17:00:00+00:00,0.0
2024-01-08 18:00:00+00:00,0.0
2024-01-08 19:00:00+00:00,0.0
2024-01-08 20:00:00+00:00,0.0
2024-01-09 14:00:00+00:00,0.0
2024-01-09 15:00:00+00:00,0.0
2024-01-09 16:00:00+00:00,0.0
2024-01-09 17:00:00+00:00,0.0
2024-01-09 18:00:00+00:00,0.0
2024-01-09 19:00:00+00:00,0.0
2024-01-09 20:00:00+00:00,0.0
2024-01-10 14:00:00+00:00,0.0
2024-01-10 15:00:00+00:00,0.0
2024-01-10 16:00:00+00:00,0.0
2024-01-10 17:00:00+00:00,0.0
2024-01-10 18:00:00+00:00,0.0
2024-01-10 19:00:00+00:00,0.0
2024-01-10 20:00:00+00:00,0.0
2024-01-11 14:00:00+00:00,0.0
2024-01-11 15:00:00+00:00,0.0
2024-01-11 16:00:00+00:00,0.0
2024-01-11 17:00:00+00:00,0.0
2024-01-11 18:00:00+00:00,0.0
2024-01-11 19:00:00+00:00,0.0
2024-01-11 20:00:00+00:00,0.0
2024-01-12 14:00:00+00:00,0.0
2024-01-12 15:00:00+00:00,0.0
2024-01-12 16:00:00+00:00,0.0
2024-01-12 17:00:00+00:00,0.0
2024-01-12 18:00:00+00:00,0.0
2024-01-12 19:00:00+00:00,0.0
2024-01-12 20:00:00+00:00,0.0
2024-01-16 14:00:00+00:00,0.0
2024-01-16 15:00:00+00:00,0.0
2024-01-16 16:00:00+00:00,0.0
2024-01-16 17:00:00+00:00,0.0
2024-01-16 18:00:00+00:00,0.0
2024-01-16 19:00:00+00:00,0.0
2024-01-16 20:00:00+00:00,0.0
2024-01-17 14:00:00+00:00,0.0
2024-01-17 15:00:00+00:00,0.0
2024-01-17 16:00:00+00:00,0.0
2024-01-17 17:00:00+00:00,0.0
2024-01-17 18:00:00+00:00,0.0
2024-01-17 19:00:00+00:00,0.0
2024-01-17 20:00:00+00:00,0.0
2024-01-18 14:00:00+00:00,0.0
2024-01-18 15:00:00+00:00,0.0
2024-01-18 16:00:00+00:00,0.0
2024-01-18 17:00:00+00:00,0.0
2024-01-18 18:00:00+00:00,0.0
2024-01-18 19:00:00+00:00,0.0
2024-01-18 20:00:00+00:00,0.0
2024-01-19 14:00:00+00:00,0.0
2024-01-19 15:00:00+00:00,0.0
2024-01-19 16:00:00+00:00,0.0
2024-01-19 17:00:00+00:00,0.0
2024-01-19 18:00:00+00:00,0.0
2024-01-19 19:00:00+00:00,0.0
2024-01-19 20:00:00+00:00,0.0
2024-01-22 14:00:00+00:00,0.0
2024-01-22 15:00:00+00:00,0.0
2024-01-22 16:00:00+00:00,0.0
2024-01-22 17:00:00+00:00,0.0
2024-01-22 18:00:00+00:00,0.0
2024-01-22 19:00:00+00:00,0.0
2024-01-22 20:00:00+00:00,0.0
2024-01-23 14:00:00+00:00,0.0
2024-01-23 15:00:00+00:00,0.0
2024-01-23 16:00:00+00:00,0.0
2024-01-23 17:00:00+00:00,0.0
2024-01-23 18:00:00+00:00,0.0
2024-01-23 19:00:00+00:00,0.0
2024-01-23 20:00:00+00:00,0.0
2024-01-24 14:00:00+00:00,0.0
2024-01-24 15:00:00+00:00,0.0
2024-01-24 16:00:00+00:00,0.0
2024-01-24 17:00:00+00:00,0.0
2024-01-24 18:00:00+00:00,0.0
2024-01-24 19:00:00+00:00,0.0
2024-01-24 20:00:00+00:00,0.0
2024-01-25 14:00:00+00:00,0.0
2024-01-25 15:00:00+00:00,0.0
2024-01-25 16:00:00+00:00,0.0
2024-01-25 17:00:00+00:00,0.0
2024-01-25 18:00:00+00:00,0.0
2024-01-25 19:00:00+00:00,0.0
2024-01-25 20:00:00+00:00,0.0
2024-01-26 14:00:00+00:00,0.0
2024-01-26 15:00:00+00:00,0.0
2024-01-26 16:00:00+00:00,0.0
2024-01-26 17:00:00+00:00,0.0
2024-01-26 18:00:00+00:00,0.0
2024-01-26 19:00:00+00:00,0.0
2024-01-26 20:00:00+00:00,0.0
2024-01-29 14:00:00+00:00,0.0
2024-01-29 15:00:00+00:00,0.0
2024-01-29 16:00:00+00:00,0.0
2024-01-29 17:00:00+00:00,0.0
2024-01-29 18:00:00+00:00,0.0
2024-01-29 19:00:00+00:00,0.0
2024-01-29 20:00:00+00:00,0.0
2024-01-30 14:00:00+00:00,0.0
2024-01-30 15:00:00+00:00,0.0
2024-01-30 16:00:00+00:00,0.0
2024-01-30 17:00:00+00:00,0.0
2024-01-30 18:00:00+00:00,0.0
2024-01-30 19:00:00+00:00,0.0
2024-01-30 20:00:00+00:00,0.0
2024-01-31 14:00:00+00:00,0.0
2024-01-31 15:00:00+00:00,0.0
2024-01-31 16:00:00+00:00,0.0
2024-01-31 17:00:00+00:00,0.0
2024-01-31 18:00:00+00:00,0.0
2024-01-31 19:00:00+00:00,0.0
2024-01-31 20:00:00+00:00,0.0
2024-02-01 14:00:00+00:00,0.0
2024-02-01 15:00:00+00:00,0.0
2024-02-01 16:00:00+00:00,0.0
2024-02-01 17:00:00+00:00,0.0
2024-02-01 18:00:00+00:00,0.0
2024-02-01 19:00:00+00:00,0.0
2024-02-01 20:00:00+00:00,0.0
2024-02-02 14:00:00+00:00,0.0
2024-02-02 15:00:00+00:00,0.0
2024-02-02 16:00:00+00:00,0.0
2024-02-02 17:00:00+00:00,0.0
2024-02-02 18:00:00+00:00,0.0
2024-02-02 19:00:00+00:00,0.0
2024-02-02 20:00:00+00:00,0.0
2024-02-05 14:00:00+00:00,0.0
2024-02-05 15:00:00+00:00,0.0
2024-02-05 16:00:00+00:00,0.0
2024-02-05 17:00:00+00:00,0.0
2024-02-05 18:00:00+00:00,0.0
2024-02-05 19:00:00+00:00,0.0
2024-02-05 20:00:00+00:00,0.0
2024-02-06 14:00:00+00:00,0.0
2024-02-06 15:00:00+00:00,0.0
2024-02-06 16:00:00+00:00,0.0
2024-02-06 17:00:00+00:00,0.0
2024-02-06 18:00:00+00:00,0.0
2024-02-06 19:00:00+00:00,0.0
2024-02-06 20:00:00+00:00,0.0
2024-02-07 14:00:00+00:00,0.0
2024-02-07 15:00:00+00:00,0.0
2024-02-07 16:00:00+00:00,0.0
2024-02-07 17:00:00+00:00,0.0
2024-02-07 18:00:00+00:00,0.0
2024-02-07 19:00:00+00:00,0.0
2024-02-07 20:00:00+00:00,0.0
2024-02-08 14:00:00+00:00,0.0
2024-02-08 15:00:00+00:00,0.0
2024-02-08 16:00:00+00:00,0.0
2024-02-08 17:00:00+00:00,0.0
2024-02-08 18:00:00+00:00,0.0
2024-02-08 19:00:00+00:00,0.0
2024-02-08 20:00:00+00:00,0.0
2024-02-09 14:00:00+00:00,0.0
2024-02-09 15:00:00+00:00,0.0
2024-02-09 16:00:00+00:00,0.0
2024-02-09 17:00:00+00:00,0.0
2024-02-09 18:00:00+00:00,0.0
2024-02-09 19:00:00+00:00,0.0
2024-02-09 20:00:00+00:00,0.0
2024-02-12 14:00:00+00:00,0.0
2024-02-12 15:00:00+00:00,0.0
2024-02-12 16:00:00+00:00,0.0
2024-02-12 17:00:00+00:00,0.0
2024-02-12 18:00:00+00:00,0.0
2024-02-12 19:00:00+00:00,0.0
2024-02-12 20:00:00+00:00,0.0
2024-02-13 14:00:00+00:00,0.0
2024-02-13 15:00:00+00:00,0.0
2024-02-13 16:00:00+00:00,0.0
2024-02-13 17:00:00+00:00,0.0
2024-02-13 18:00:00+00:00,0.0
2024-02-13 19:00:00+00:00,0.0
2024-02-13 20:00:00+00:00,0.0
2024-02-14 14:00:00+00:00,0.0
2024-02-14 15:00:00+00:00,0.0
2024-02-14 16:00:00+00:00,0.0
2024-02-14 17:00:00+00:00,0.0
2024-02-14 18:00:00+00:00,0.0
2024-02-14 19:00:00+00:00,0.0
2024-02-14 20:00:00+00:00,0.0
2024-02-15 14:00:00+00:00,0.0
2024-02-15 15:00:00+00:00,0.0
2024-02-15 16:00:00+00:00,0.0
2024-02-15 17:00:00+00:00,0.0
2024-02-15 18:00:00+00:00,0.0
2024-02-15 19:00:00+00:00,0.0
2024-02-15 20:00:00+00:00,0.0
2024-02-16 14:00:00+00:00,0.0
2024-02-16 15:00:00+00:00,0.0
2024-02-16 16:00:00+00:00,0.0
2024-02-16 17:00:00+00:00,0.0
2024-02-16 18:00:00+00:00,0.0
2024-02-16 19:00:00+00:00,0.0
2024-02-16 20:00:00+00:00,0.0
2024-02-20 14:00:00+00:00,0.0
2024-02-20 15:00:00+00:00,0.0
2024-02-20 16:00:00+00:00,0.0
2024-02-20 17:00:00+00:00,0.0
2024-02-20 18:00:00+00:00,0.0
2024-02-20 19:00:00+00:00,0.0
2024-02-20 20:00:00+00:00,0.0
2024-02-21 14:00:00+00:00,0.0
2024-02-21 15:00:00+00:00,0.0
2024-02-21 16:00:00+00:00,0.0
2024-02-21 17:00:00+00:00,0.0
2024-02-21 18:00:00+00:00,0.0
2024-02-21 19:00:00+00:00,0.0
2024-02-21 20:00:00+00:00,0.0
2024-02-22 14:00:00+00:00,0.0
2024-02-22 15:00:00+00:00,0.0
2024-02-22 16:00:00+00:00,0.0
2024-02-22 17:00:00+00:00,0.0
2024-02-22 18:00:00+00:00,0.0
2024-02-22 19:00:00+00:00,0.0
2024-02-22 20:00:00+00:00,0.0
2024-02-23 14:00:00+00:00,0.0
2024-02-23 15:00:00+00:00,0.0
2024-02-23 16:00:00+00:00,0.0
2024-02-23 17:00:00+00:00,0.0
2024-02-23 18:00:00+00:00,0.0
2024-02-23 19:00:00+00:00,0.0
2024-02-23 20:00:00+00:00,0.0
2024-02-26 14:00:00+00:00,0.0
2024-02-26 15:00:00+00:00,0.0
2024-02-26 16:00:00+00:00,0.0
2024-02-26 17:00:00+00:00,0.0
2024-02-26 18:00:00+00:00,0.0
2024-02-26 19:00:00+00:00,0.0
2024-02-26 20:00:00+00:00,0.0
2024-02-27 14:00:00+00:00,0.0
2024-02-27 15:00:00+00:00,0.0
2024-02-27 16:00:00+00:00,0.0
2024-02-27 17:00:00+00:00,0.0
2024-02-27 18:00:00+00:00,0.0
2024-02-27 19:00:00+00:00,0.0
2024-02-27 20:00:00+00:00,0.0
2024-02-28 14:00:00+00:00,0.0
2024-02-28 15:00:00+00:00,0.0
2024-02-28 16:00:00+00:00,0.0
2024-02-28 17:00:00+00:00,0.0
2024-02-28 18:00:00+00:00,0.0
2024-02-28 19:00:00+00:00,0.0
2024-02-28 20:00:00+00:00,0.0
2024-02-29 14:00:00+00:00,0.0
2024-02-29 15:00:00+00:00,0.0
2024-02-29 16:00:00+00:00,0.0
2024-02-29 17:00:00+00:00,0.0
2024-02-29 18:00:00+00:00,0.0
2024-02-29 19:00:00+00:00,0.0
2024-02-29 20:00:00+00:00,0.0
2024-03-01 14:00:00+00:00,0.0
2024-03-01 15:00:00+00:00,0.0
2024-03-01 16:00:00+00:00,0.0
2024-03-01 17:00:00+00:00,0.0
2024-03-01 18:00:00+00:00,0.0
2024-03-01 19:00:00+00:00,0.0
2024-03-01 20:00:00+00:00,0.0
2024-03-04 14:00:00+00:00,0.0
2024-03-04 15:00:00+00:00,0.0
2024-03-04 16:00:00+00:00,0.0
2024-03-04 17:00:00+00:00,0.0
2024-03-04 18:00:00+00:00,0.0
2024-03-04 19:00:00+00:00,0.0
2024-03-04 20:00:00+00:00,0.0
2024-03-05 14:00:00+00:00,0.0
2024-03-05 15:00:00+00:00,0.0
2024-03-05 16:00:00+00:00,0.0
2024-03-05 17:00:00+00:00,0.0
2024-03-05 18:00:00+00:00,0.0
2024-03-05 19:00:00+00:00,0.0
2024-03-05 20:00:00+00:00,0.0
2024-03-06 14:00:00+00:00,0.0
2024-03-06 15:00:00+00:00,0.0
2024-03-06 16:00:00+00:00,0.0
2024-03-06 17:00:00+00:00,0.0
2024-03-06 18:00:00+00:00,0.0
2024-03-06 19:00:00+00:00,0.0
2024-03-06 20:00:00+00:00,0.0
2024-03-07 14:00:00+00:00,0.0
2024-03-07 15:00:00+00:00,0.0
2024-03-07 16:00:00+00:00,0.0
2024-03-07 17:00:00+00:00,0.0
2024-03-07 18:00:00+00:00,0.0
2024-03-07 19:00:00+00:00,0.0
2024-03-07 20:00:00+00:00,0.0
2024-03-08 14:00:00+00:00,0.0
2024-03-08 15:00:00+00:00,0.0
2024-03-08 16:00:00+00:00,0.0
2024-03-08 17:00:00+00:00,0.0
2024-03-08 18:00:00+00:00,0.0
2024-03-08 19:00:00+00:00,0.0
2024-03-08 20:00:00+00:00,0.0
2024-03-11 13:00:00+00:00,0.0
2024-03-11 14:00:00+00:00,0.0
2024-03-11 15:00:00+00:00,0.0
2024-03-11 16:00:00+00:00,0.0
2024-03-11 17:00:00+00:00,0.0
2024-03-11 18:00:00+00:00,0.0
2024-03-11 19:00:00+00:00,0.0
2024-03-12 13:00:00+00:00,0.0
2024-03-12 14:00:00+00:00,0.0
2024-03-12 15:00:00+00:00,0.0
2024-03-12 16:00:00+00:00,0.0
2024-03-12 17:00:00+00:00,0.0
2024-03-12 18:00:00+00:00,0.0
2024-03-12 19:00:00+00:00,0.0
2024-03-13 13:00:00+00:00,0.0
2024-03-13 14:00:00+00:00,0.0
2024-03-13 15:00:00+00:00,0.0
2024-03-13 16:00:00+00:00,0.0
2024-03-13 17:00:00+00:00,0.0
2024-03-13 18:00:00+00:00,0.0
2024-03-13 19:00:00+00:00,0.0
2024-03-14 13:00:00+00:00,0.0
2024-03-14 14:00:00+00:00,0.0
2024-03-14 15:00:00+00:00,0.0
2024-03-14 16:00:00+00:00,0.0
2024-03-14 17:00:00+00:00,0.0
2024-03-14 18:00:00+00:00,0.0
2024-03-14 19:00:00+00:00,0.0
2024-03-15 13:00:00+00:00,0.0
2024-03-15 14:00:00+00:00,0.0
2024-03-15 15:00:00+00:00,0.0
2024-03-15 16:00:00+00:00,0.0
2024-03-15 17:00:00+00:00,0.0
2024-03-15 18:00:00+00:00,0.0
2024-03-15 19:00:00+00:00,0.0
2024-03-18 13:00:00+00:00,0.0
2024-03-18 14:00:00+00:00,0.0
2024-03-18 15:00:00+00:00,0.0
2024-03-18 16:00:00+00:00,0.0
2024-03-18 17:00:00+00:00,0.0
2024-03-18 18:00:00+00:00,0.0
2024-03-18 19:00:00+00:00,0.0
2024-03-19 13:00:00+00:00,0.0
2024-03-19 14:00:00+00:00,0.0
2024-03-19 15:00:00+00:00,0.0
2024-03-19 16:00:00+00:00,0.0
2024-03-19 17:00:00+00:00,0.0
2024-03-19 18:00:00+00:00,0.0
2024-03-19 19:00:00+00:00,0.0
2024-03-20 13:00:00+00:00,0.0
2024-03-20 14:00:00+00:00,0.0
2024-03-20 15:00:00+00:00,0.0
2024-03-20 16:00:00+00:00,0.0
2024-03-20 17:00:00+00:00,0.0
2024-03-20 18:00:00+00:00,0.0
2024-03-20 19:00:00+00:00,0.0
2024-03-21 13:00:00+00:00,0.0
2024-03-21 14:00:00+00:00,0.0
2024-03-21 15:00:00+00:00,0.0
2024-03-21 16:00:00+00:00,0.0
2024-03-21 17:00:00+00:00,0.0
2024-03-21 18:00:00+00:00,0.0
2024-03-21 19:00:00+00:00,0.0
2024-03-22 13:00:00+00:00,0.0
2024-03-22 14:00:00+00:00,0.0
2024-03-22 15:00:00+00:00,0.0
2024-03-22 16:00:00+00:00,0.0
2024-03-22 17:00:00+00:00,0.0
2024-03-22 18:00:00+00:00,0.0
2024-03-22 19:00:00+00:00,0.0
2024-03-25 13:00:00+00:00,0.0
2024-03-25 14:00:00+00:00,0.0
2024-03-25 15:00:00+00:00,0.0
2024-03-25 16:00:00+00:00,0.0
2024-03-25 17:00:00+00:00,0.0
2024-03-25 18:00:00+00:00,0.0
2024-03-25 19:00:00+00:00,0.0
2024-03-26 13:00:00+00:00,0.0
2024-03-26 14:00:00+00:00,0.0
2024-03-26 15:00:00+00:00,0.0
2024-03-26 16:00:00+00:00,0.0
2024-03-26 17:00:00+00:00,0.0
2024-03-26 18:00:00+00:00,0.0
2024-03-26 19:00:00+00:00,0.0
2024-03-27 13:00:00+00:00,0.0
2024-03-27 14:00:00+00:00,0.0
2024-03-27 15:00:00+00:00,0.0
2024-03-27 16:00:00+00:00,0.0
2024-03-27 17:00:00+00:00,0.0
2024-03-27 18:00:00+00:00,0.0
2024-03-27 19:00:00+00:00,0.0
2024-03-28 13:00:00+00:00,0.0
2024-03-28 14:00:00+00:00,0.0
2024-03-28 15:00:00+00:00,0.0
2024-03-28 16:00:00+00:00,0.0
2024-03-28 17:00:00+00:00,0.0
2024-03-28 18:00:00+00:00,0.0
2024-03-28 19:00:00+00:00,0.0
2024-04-01 13:00:00+00:00,0.0
2024-04-01 14:00:00+00:00,0.0
2024-04-01 15:00:00+00:00,0.0
2024-04-01 16:00:00+00:00,0.0
2024-04-01 17:00:00+00:00,0.0
2024-04-01 18:00:00+00:00,0.0
2024-04-01 19:00:00+00:00,0.0
2024-04-02 13:00:00+00:00,0.0
2024-04-02 14:00:00+00:00,0.0
2024-04-02 15:00:00+00:00,0.0
2024-04-02 16:00:00+00:00,0.0
2024-04-02 17:00:00+00:00,0.0
2024-04-02 18:00:00+00:00,0.0
2024-04-02 19:00:00+00:00,0.0
2024-04-03 13:00:00+00:00,0.0
2024-04-03 14:00:00+00:00,0.0
2024-04-03 15:00:00+00:00,0.0
2024-04-03 16:00:00+00:00,0.0
2024-04-03 17:00:00+00:00,0.0
2024-04-03 18:00:00+00:00,0.0
2024-04-03 19:00:00+00:00,0.0
2024-04-04 13:00:00+00:00,0.0
2024-04-04 14:00:00+00:00,0.0
2024-04-04 15:00:00+00:00,0.0
2024-04-04 16:00:00+00:00,0.0
2024-04-04 17:00:00+00:00,0.0
2024-04-04 18:00:00+00:00,0.0
2024-04-04 19:00:00+00:00,0.0
2024-04-05 13:00:00+00:00,0.0
2024-04-05 14:00:00+00:00,0.0
2024-04-05 15:00:00+00:00,0.0
2024-04-05 16:00:00+00:00,0.0
2024-04-05 17:00:00+00:00,0.0
2024-04-05 18:00:00+00:00,0.0
2024-04-05 19:00:00+00:00,0.0
2024-04-08 13:00:00+00:00,0.0
2024-04-08 14:00:00+00:00,0.0
2024-04-08 15:00:00+00:00,0.0
2024-04-08 16:00:00+00:00,0.0
2024-04-08 17:00:00+00:00,0.0
2024-04-08 18:00:00+00:00,0.0
2024-04-08 19:00:00+00:00,0.0
2024-04-09 13:00:00+00:00,0.0
2024-04-09 14:00:00+00:00,0.0
2024-04-09 15:00:00+00:00,0.0
2024-04-09 16:00:00+00:00,0.0
2024-04-09 17:00:00+00:00,0.0
2024-04-09 18:00:00+00:00,0.0
2024-04-09 19:00:00+00:00,0.0
2024-04-10 13:00:00+00:00,0.0
2024-04-10 14:00:00+00:00,0.0
2024-04-10 15:00:00+00:00,0.0
2024-04-10 16:00:00+00:00,0.0
2024-04-10 17:00:00+00:00,0.0
2024-04-10 18:00:00+00:00,0.0
2024-04-10 19:00:00+00:00,0.0
2024-04-11 13:00:00+00:00,0.0
2024-04-11 14:00:00+00:00,0.0
2024-04-11 15:00:00+00:00,0.0
2024-04-11 16:00:00+00:00,0.0
2024-04-11 17:00:00+00:00,0.0
2024-04-11 18:00:00+00:00,0.0
2024-04-11 19:00:00+00:00,0.0
2024-04-12 13:00:00+00:00,0.0
2024-04-12 14:00:00+00:00,0.0
2024-04-12 15:00:00+00:00,0.0
2024-04-12 16:00:00+00:00,0.0
2024-04-12 17:00:00+00:00,0.0
2024-04-12 18:00:00+00:00,0.0
2024-04-12 19:00:00+00:00,0.0
2024-04-15 13:00:00+00:00,0.0
2024-04-15 14:00:00+00:00,0.0
2024-04-15 15:00:00+00:00,0.0
2024-04-15 16:00:00+00:00,0.0
2024-04-15 17:00:00+00:00,0.0
2024-04-15 18:00:00+00:00,0.0
2024-04-15 19:00:00+00:00,0.0
2024-04-16 13:00:00+00:00,0.0
2024-04-16 14:00:00+00:00,0.0
2024-04-16 15:00:00+00:00,0.0
2024-04-16 16:00:00+00:00,0.0
2024-04-16 17:00:00+00:00,0.0
2024-04-16 18:00:00+00:00,0.0
2024-04-16 19:00:00+00:00,0.0
2024-04-17 13:00:00+00:00,0.0
2024-04-17 14:00:00+00:00,0.0
2024-04-17 15:00:00+00:00,0.0
2024-04-17 16:00:00+00:00,0.0
2024-04-17 17:00:00+00:00,0.0
2024-04-17 18:00:00+00:00,0.0
2024-04-17 19:00:00+00:00,0.0
2024-04-18 13:00:00+00:00,0.0
2024-04-18 14:00:00+00:00,0.0
2024-04-18 15:00:00+00:00,0.0
2024-04-18 16:00:00+00:00,0.0
2024-04-18 17:00:00+00:00,0.0
2024-04-18 18:00:00+00:00,0.0
2024-04-18 19:00:00+00:00,0.0
2024-04-19 13:00:00+00:00,0.0
2024-04-19 14:00:00+00:00,0.0
2024-04-19 15:00:00+00:00,0.0
2024-04-19 16:00:00+00:00,0.0
2024-04-19 17:00:00+00:00,0.0
2024-04-19 18:00:00+00:00,0.0
2024-04-19 19:00:00+00:00,0.0
2024-04-22 13:00:00+00:00,0.0
2024-04-22 14:00:00+00:00,0.0
2024-04-22 15:00:00+00:00,0.0
2024-04-22 16:00:00+00:00,0.0
2024-04-22 17:00:00+00:00,0.0
2024-04-22 18:00:00+00:00,0.0
2024-04-22 19:00:00+00:00,0.0
2024-04-23 13:00:00+00:00,0.0
2024-04-23 14:00:00+00:00,0.0
2024-04-23 15:00:00+00:00,0.0
2024-04-23 16:00:00+00:00,0.0
2024-04-23 17:00:00+00:00,0.0
2024-04-23 18:00:00+00:00,0.0
2024-04-23 19:00:00+00:00,0.0
2024-04-24 13:00:00+00:00,0.0
2024-04-24 14:00:00+00:00,0.0
2024-04-24 15:00:00+00:00,0.0
2024-04-24 16:00:00+00:00,0.0
2024-04-24 17:00:00+00:00,0.0
2024-04-24 18:00:00+00:00,0.0
2024-04-24 19:00:00+00:00,0.0
2024-04-25 13:00:00+00:00,0.0
2024-04-25 14:00:00+00:00,0.0
2024-04-25 15:00:00+00:00,0.0
2024-04-25 16:00:00+00:00,0.0
2024-04-25 17:00:00+00:00,0.0
2024-04-25 18:00:00+00:00,0.0
2024-04-25 19:00:00+00:00,0.0
2024-04-26 13:00:00+00:00,0.0
2024-04-26 14:00:00+00:00,0.0
2024-04-26 15:00:00+00:00,0.0
2024-04-26 16:00:00+00:00,0.0
2024-04-26 17:00:00+00:00,0.0
2024-04-26 18:00:00+00:00,0.0
2024-04-26 19:00:00+00:00,0.0
2024-04-29 13:00:00+00:00,0.0
2024-04-29 14:00:00+00:00,0.0
2024-04-29 15:00:00+00:00,0.0
2024-04-29 16:00:00+00:00,0.0
2024-04-29 17:00:00+00:00,0.0
2024-04-29 18:00:00+00:00,0.0
2024-04-29 19:00:00+00:00,0.0
2024-04-30 13:00:00+00:00,0.0
2024-04-30 14:00:00+00:00,0.0
2024-04-30 15:00:00+00:00,0.0
2024-04-30 16:00:00+00:00,0.0
2024-04-30 17:00:00+00:00,0.0
2024-04-30 18:00:00+00:00,0.0
2024-04-30 19:00:00+00:00,0.0
2024-05-01 13:00:00+00:00,0.0
2024-05-01 14:00:00+00:00,0.0
2024-05-01 15:00:00+00:00,0.0
2024-05-01 16:00:00+00:00,0.0
2024-05-01 17:00:00+00:00,0.0
2024-05-01 18:00:00+00:00,0.0
2024-05-01 19:00:00+00:00,0.0
2024-05-02 13:00:00+00:00,0.0
2024-05-02 14:00:00+00:00,0.0
2024-05-02 15:00:00+00:00,0.0
2024-05-02 16:00:00+00:00,0.0
2024-05-02 17:00:00+00:00,0.0
2024-05-02 18:00:00+00:00,0.0
2024-05-02 19:00:00+00:00,0.0
2024-05-03 13:00:00+00:00,0.0
2024-05-03 14:00:00+00:00,0.0
2024-05-03 15:00:00+00:00,0.0
2024-05-03 16:00:00+00:00,0.0
2024-05-03 17:00:00+00:00,0.0
2024-05-03 18:00:00+00:00,0.0
2024-05-03 19:00:00+00:00,0.0
2024-05-06 13:00:00+00:00,0.0
2024-05-06 14:00:00+00:00,0.0
2024-05-06 15:00:00+00:00,0.0
2024-05-06 16:00:00+00:00,0.0
2024-05-06 17:00:00+00:00,0.0
2024-05-06 18:00:00+00:00,0.0
2024-05-06 19:00:00+00:00,0.0
2024-05-07 13:00:00+00:00,0.0
2024-05-07 14:00:00+00:00,0.0
2024-05-07 15:00:00+00:00,0.0
2024-05-07 16:00:00+00:00,0.0
2024-05-07 17:00:00+00:00,0.0
2024-05-07 18:00:00+00:00,0.0
2024-05-07 19:00:00+00:00,0.0
2024-05-08 13:00:00+00:00,0.0
2024-05-08 14:00:00+00:00,0.0
2024-05-08 15:00:00+00:00,0.0
2024-05-08 16:00:00+00:00,0.0
2024-05-08 17:00:00+00:00,0.0
2024-05-08 18:00:00+00:00,0.0
2024-05-08 19:00:00+00:00,0.0
2024-05-09 13:00:00+00:00,0.0
2024-05-09 14:00:00+00:00,0.0
2024-05-09 15:00:00+00:00,0.0
2024-05-09 16:00:00+00:00,0.0
2024-05-09 17:00:00+00:00,0.0
2024-05-09 18:00:00+00:00,0.0
2024-05-09 19:00:00+00:00,0.0
2024-05-10 13:00:00+00:00,0.0
2024-05-10 14:00:00+00:00,0.0
2024-05-10 15:00:00+00:00,0.0
2024-05-10 16:00:00+00:00,0.0
2024-05-10 17:00:00+00:00,0.0
2024-05-10 18:00:00+00:00,0.0
2024-05-10 19:00:00+00:00,0.0
2024-05-13 13:00:00+00:00,0.0
2024-05-13 14:00:00+00:00,0.0
2024-05-13 15:00:00+00:00,0.0
2024-05-13 16:00:00+00:00,0.0
2024-05-13 17:00:00+00:00,0.0
2024-05-13 18:00:00+00:00,0.0
2024-05-13 19:00:00+00:00,0.0
2024-05-14 13:00:00+00:00,0.0
2024-05-14 14:00:00+00:00,0.0
2024-05-14 15:00:00+00:00,0.0
2024-05-14 16:00:00+00:00,0.0
2024-05-14 17:00:00+00:00,0.0
2024-05-14 18:00:00+00:00,0.0
2024-05-14 19:00:00+00:00,0.0
2024-05-15 13:00:00+00:00,0.0
2024-05-15 14:00:00+00:00,0.0
2024-05-15 15:00:00+00:00,0.0
2024-05-15 16:00:00+00:00,0.0
2024-05-15 17:00:00+00:00,0.0
2024-05-15 18:00:00+00:00,0.0
2024-05-15 19:00:00+00:00,0.0
2024-05-16 13:00:00+00:00,0.0
2024-05-16 14:00:00+00:00,0.0
2024-05-16 15:00:00+00:00,0.0
2024-05-16 16:00:00+00:00,0.0
2024-05-16 17:00:00+00:00,0.0
2024-05-16 18:00:00+00:00,0.0
2024-05-16 19:00:00+00:00,0.0
2024-05-17 13:00:00+00:00,0.0
2024-05-17 14:00:00+00:00,0.0
2024-05-17 15:00:00+00:00,0.0
2024-05-17 16:00:00+00:00,0.0
2024-05-17 17:00:00+00:00,0.0
2024-05-17 18:00:00+00:00,0.0
2024-05-17 19:00:00+00:00,0.0
2024-05-20 13:00:00+00:00,0.0
2024-05-20 14:00:00+00:00,0.0
2024-05-20 15:00:00+00:00,0.0
2024-05-20 16:00:00+00:00,0.0
2024-05-20 17:00:00+00:00,0.0
2024-05-20 18:00:00+00:00,0.0
2024-05-20 19:00:00+00:00,0.0
2024-05-21 13:00:00+00:00,0.0
2024-05-21 14:00:00+00:00,0.0
2024-05-21 15:00:00+00:00,0.0
2024-05-21 16:00:00+00:00,0.0
2024-05-21 17:00:00+00:00,0.0
2024-05-21 18:00:00+00:00,0.0
2024-05-21 19:00:00+00:00,0.0
2024-05-22 13:00:00+00:00,0.0
2024-05-22 14:00:00+00:00,0.0
2024-05-22 15:00:00+00:00,0.0
2024-05-22 16:00:00+00:00,0.0
2024-05-22 17:00:00+00:00,0.0
2024-05-22 18:00:00+00:00,0.0
2024-05-22 19:00:00+00:00,0.0
2024-05-23 13:00:00+00:00,0.0
2024-05-23 14:00:00+00:00,0.0
2024-05-23 15:00:00+00:00,0.0
2024-05-23 16:00:00+00:00,0.0
2024-05-23 17:00:00+00:00,0.0
2024-05-23 18:00:00+00:00,0.0
2024-05-23 19:00:00+00:00,0.0
2024-05-24 13:00:00+00:00,0.0
2024-05-24 14:00:00+00:00,0.0
2024-05-24 15:00:00+00:00,0.0
2024-05-24 16:00:00+00:00,0.0
2024-05-24 17:00:00+00:00,0.0
2024-05-24 18:00:00+00:00,0.0
2024-05-24 19:00:00+00:00,0.0
2024-05-28 13:00:00+00:00,0.0
2024-05-28 14:00:00+00:00,0.0
2024-05-28 15:00:00+00:00,0.0
2024-05-28 16:00:00+00:00,0.0
2024-05-28 17:00:00+00:00,0.0
2024-05-28 18:00:00+00:00,0.0
2024-05-28 19:00:00+00:00,0.0
2024-05-29 13:00:00+00:00,0.0
2024-05-29 14:00:00+00:00,0.0
2024-05-29 15:00:00+00:00,0.0
2024-05-29 16:00:00+00:00,0.0
2024-05-29 17:00:00+00:00,0.0
2024-05-29 18:00:00+00:00,0.0
2024-05-29 19:00:00+00:00,0.0
2024-05-30 13:00:00+00:00,0.0
2024-05-30 14:00:00+00:00,0.0
2024-05-30 15:00:00+00:00,0.0
2024-05-30 16:00:00+00:00,0.0
2024-05-30 17:00:00+00:00,0.0
2024-05-30 18:00:00+00:00,0.0
2024-05-30 19:00:00+00:00,0.0
2024-05-31 13:00:00+00:00,0.0
2024-05-31 14:00:00+00:00,0.0
2024-05-31 15:00:00+00:00,0.0
2024-05-31 16:00:00+00:00,0.0
2024-05-31 17:00:00+00:00,0.0
2024-05-31 18:00:00+00:00,0.0
2024-05-31 19:00:00+00:00,0.0
2024-06-03 13:00:00+00:00,0.0
2024-06-03 14:00:00+00:00,0.0
2024-06-03 15:00:00+00:00,0.0
2024-06-03 16:00:00+00:00,0.0
2024-06-03 17:00:00+00:00,0.0
2024-06-03 18:00:00+00:00,0.0
2024-06-03 19:00:00+00:00,0.0
2024-06-04 13:00:00+00:00,0.0
2024-06-04 14:00:00+00:00,0.0
2024-06-04 15:00:00+00:00,0.0
2024-06-04 16:00:00+00:00,0.0
2024-06-04 17:00:00+00:00,0.0
2024-06-04 18:00:00+00:00,0.0
2024-06-04 19:00:00+00:00,0.0
2024-06-05 13:00:00+00:00,0.0
2024-06-05 14:00:00+00:00,0.0
2024-06-05 15:00:00+00:00,0.0
2024-06-05 16:00:00+00:00,0.0
2024-06-05 17:00:00+00:00,0.0
2024-06-05 18:00:00+00:00,0.0
2024-06-05 19:00:00+00:00,0.0
2024-06-06 13:00:00+00:00,0.0
2024-06-06 14:00:00+00:00,0.0
2024-06-06 15:00:00+00:00,0.0
2024-06-06 16:00:00+00:00,0.0
2024-06-06 17:00:00+00:00,0.0
2024-06-06 18:00:00+00:00,0.0
2024-06-06 19:00:00+00:00,0.0
2024-06-07 13:00:00+00:00,0.0
2024-06-07 14:00:00+00:00,0.0
2024-06-07 15:00:00+00:00,0.0
2024-06-07 16:00:00+00:00,0.0
2024-06-07 17:00:00+00:00,0.0
2024-06-07 18:00:00+00:00,0.0
2024-06-07 19:00:00+00:00,0.0
2024-06-10 13:00:00+00:00,0.0
2024-06-10 14:00:00+00:00,0.0
2024-06-10 15:00:00+00:00,0.0
2024-06-10 16:00:00+00:00,0.0
2024-06-10 17:00:00+00:00,0.0
2024-06-10 18:00:00+00:00,0.0
2024-06-10 19:00:00+00:00,0.0
2024-06-11 13:00:00+00:00,0.0
2024-06-11 14:00:00+00:00,0.0
2024-06-11 15:00:00+00:00,0.0
2024-06-11 16:00:00+00:00,0.0
2024-06-11 17:00:00+00:00,0.0
2024-06-11 18:00:00+00:00,0.0
2024-06-11 19:00:00+00:00,0.0
2024-06-12 13:00:00+00:00,0.0
2024-06-12 14:00:00+00:00,0.0
2024-06-12 15:00:00+00:00,0.0
2024-06-12 16:00:00+00:00,0.0
2024-06-12 17:00:00+00:00,0.0
2024-06-12 18:00:00+00:00,0.0
2024-06-12 19:00:00+00:00,0.0
2024-06-13 13:00:00+00:00,0.0
2024-06-13 14:00:00+00:00,0.0
2024-06-13 15:00:00+00:00,0.0
2024-06-13 16:00:00+00:00,0.0
2024-06-13 17:00:00+00:00,0.0
2024-06-13 18:00:00+00:00,0.0
2024-06-13 19:00:00+00:00,0.0
2024-06-14 13:00:00+00:00,0.0
2024-06-14 14:00:00+00:00,0.0
2024-06-14 15:00:00+00:00,0.0
2024-06-14 16:00:00+00:00,0.0
2024-06-14 17:00:00+00:00,0.0
2024-06-14 18:00:00+00:00,0.0
2024-06-14 19:00:00+00:00,0.0
2024-06-17 13:00:00+00:00,0.0
2024-06-17 14:00:00+00:00,0.0
2024-06-17 15:00:00+00:00,0.0
2024-06-17 16:00:00+00:00,0.0
2024-06-17 17:00:00+00:00,0.0
2024-06-17 18:00:00+00:00,0.0
2024-06-17 19:00:00+00:00,0.0
2024-06-18 13:00:00+00:00,0.0
2024-06-18 14:00:00+00:00,0.0
2024-06-18 15:00:00+00:00,0.0
2024-06-18 16:00:00+00:00,0.0
2024-06-18 17:00:00+00:00,0.0
2024-06-18 18:00:00+00:00,0.0
2024-06-18 19:00:00+00:00,0.0
2024-06-20 13:00:00+00:00,0.0
2024-06-20 14:00:00+00:00,0.0
2024-06-20 15:00:00+00:00,0.0
2024-06-20 16:00:00+00:00,0.0
2024-06-20 17:00:00+00:00,0.0
2024-06-20 18:00:00+00:00,0.0
2024-06-20 19:00:00+00:00,0.0
2024-06-21 13:00:00+00:00,0.0
2024-06-21 14:00:00+00:00,0.0
2024-06-21 15:00:00+00:00,0.0
2024-06-21 16:00:00+00:00,0.0
2024-06-21 17:00:00+00:00,0.0
2024-06-21 18:00:00+00:00,0.0
2024-06-21 19:00:00+00:00,0.0
2024-06-24 13:00:00+00:00,0.0
2024-06-24 14:00:00+00:00,0.0
2024-06-24 15:00:00+00:00,0.0
2024-06-24 16:00:00+00:00,0.0
2024-06-24 17:00:00+00:00,0.0
2024-06-24 18:00:00+00:00,0.0
2024-06-24 19:00:00+00:00,0.0
2024-06-25 13:00:00+00:00,0.0
2024-06-25 14:00:00+00:00,0.0
2024-06-25 15:00:00+00:00,0.0
2024-06-25 16:00:00+00:00,0.0
2024-06-25 17:00:00+00:00,0.0
2024-06-25 18:00:00+00:00,0.0
2024-06-25 19:00:00+00:00,0.0
2024-06-26 13:00:00+00:00,0.0
2024-06-26 14:00:00+00:00,0.0
2024-06-26 15:00:00+00:00,0.0
2024-06-26 16:00:00+00:00,0.0
2024-06-26 17:00:00+00:00,0.0
2024-06-26 18:00:00+00:00,0.0
2024-06-26 19:00:00+00:00,0.0
2024-06-27 13:00:00+00:00,0.0
2024-06-27 14:00:00+00:00,0.0
2024-06-27 15:00:00+00:00,0.0
2024-06-27 16:00:00+00:00,0.0
2024-06-27 17:00:00+00:00,0.0
2024-06-27 18:00:00+00:00,0.0
2024-06-27 19:00:00+00:00,0.0
2024-06-28 13:00:00+00:00,0.0
2024-06-28 14:00:00+00:00,0.0
2024-06-28 15:00:00+00:00,0.0
2024-06-28 16:00:00+00:00,0.0
2024-06-28 17:00:00+00:00,0.0
2024-06-28 18:00:00+00:00,0.0
2024-06-28 19:00:00+00:00,0.0
2024-07-01 13:00:00+00:00,0.0
2024-07-01 14:00:00+00:00,0.0
2024-07-01 15:00:00+00:00,0.0
2024-07-01 16:00:00+00:00,0.0
2024-07-01 17:00:00+00:00,0.0
2024-07-01 18:00:00+00:00,0.0
2024-07-01 19:00:00+00:00,0.0
2024-07-02 13:00:00+00:00,0.0
2024-07-02 14:00:00+00:00,0.0
2024-07-02 15:00:00+00:00,0.0
2024-07-02 16:00:00+00:00,0.0
2024-07-02 17:00:00+00:00,0.0
2024-07-02 18:00:00+00:00,0.0
2024-07-02 19:00:00+00:00,0.0
2024-07-03 13:00:00+00:00,0.0
2024-07-03 14:00:00+00:00,0.0
2024-07-03 15:00:00+00:00,0.0
2024-07-05 13:00:00+00:00,0.0
2024-07-05 14:00:00+00:00,0.0
2024-07-05 15:00:00+00:00,0.0
2024-07-05 16:00:00+00:00,0.0
2024-07-05 17:00:00+00:00,0.0
2024-07-05 18:00:00+00:00,0.0
2024-07-05 19:00:00+00:00,0.0
2024-07-08 13:00:00+00:00,0.0
2024-07-08 14:00:00+00:00,0.0
2024-07-08 15:00:00+00:00,0.0
2024-07-08 16:00:00+00:00,0.0
2024-07-08 17:00:00+00:00,0.0
2024-07-08 18:00:00+00:00,0.0
2024-07-08 19:00:00+00:00,0.0
2024-07-09 13:00:00+00:00,0.0
2024-07-09 14:00:00+00:00,0.0
2024-07-09 15:00:00+00:00,0.0
2024-07-09 16:00:00+00:00,0.0
2024-07-09 17:00:00+00:00,0.0
2024-07-09 18:00:00+00:00,0.0
2024-07-09 19:00:00+00:00,0.0
2024-07-10 13:00:00+00:00,0.0
2024-07-10 14:00:00+00:00,0.0
2024-07-10 15:00:00+00:00,0.0
2024-07-10 16:00:00+00:00,0.0
2024-07-10 17:00:00+00:00,0.0
2024-07-10 18:00:00+00:00,0.0
2024-07-10 19:00:00+00:00,0.0
2024-07-11 13:00:00+00:00,0.0
2024-07-11 14:00:00+00:00,0.0
2024-07-11 15:00:00+00:00,0.0
2024-07-11 16:00:00+00:00,0.0
2024-07-11 17:00:00+00:00,0.0
2024-07-11 18:00:00+00:00,0.0
2024-07-11 19:00:00+00:00,0.0
2024-07-12 13:00:00+00:00,0.0
2024-07-12 14:00:00+00:00,0.0
2024-07-12 15:00:00+00:00,0.0
2024-07-12 16:00:00+00:00,0.0
2024-07-12 17:00:00+00:00,0.0
2024-07-12 18:00:00+00:00,0.0
2024-07-12 19:00:00+00:00,0.0
2024-07-15 13:00:00+00:00,0.0
2024-07-15 14:00:00+00:00,0.0
2024-07-15 15:00:00+00:00,0.0
2024-07-15 16:00:00+00:00,0.0
2024-07-15 17:00:00+00:00,0.0
2024-07-15 18:00:00+00:00,0.0
2024-07-15 19:00:00+00:00,0.0
2024-07-16 13:00:00+00:00,0.0
2024-07-16 14:00:00+00:00,0.0
2024-07-16 15:00:00+00:00,0.0
2024-07-16 16:00:00+00:00,0.0
2024-07-16 17:00:00+00:00,0.0
2024-07-16 18:00:00+00:00,0.0
2024-07-16 19:00:00+00:00,0.0
2024-07-17 13:00:00+00:00,0.0
2024-07-17 14:00:00+00:00,0.0
2024-07-17 15:00:00+00:00,0.0
2024-07-17 16:00:00+00:00,0.0
2024-07-17 17:00:00+00:00,0.0
2024-07-17 18:00:00+00:00,0.0
2024-07-17 19:00:00+00:00,0.0
2024-07-18 13:00:00+00:00,0.0
2024-07-18 14:00:00+00:00,0.0
2024-07-18 15:00:00+00:00,0.0
2024-07-18 16:00:00+00:00,0.0
2024-07-18 17:00:00+00:00,0.0
2024-07-18 18:00:00+00:00,0.0
2024-07-18 19:00:00+00:00,0.0
2024-07-19 13:00:00+00:00,0.0
2024-07-19 14:00:00+00:00,0.0
2024-07-19 15:00:00+00:00,0.0
2024-07-19 16:00:00+00:00,0.0
2024-07-19 17:00:00+00:00,0.0
2024-07-19 18:00:00+00:00,0.0
2024-07-19 19:00:00+00:00,0.0
2024-07-22 13:00:00+00:00,0.0
2024-07-22 14:00:00+00:00,0.0
2024-07-22 15:00:00+00:00,0.0
2024-07-22 16:00:00+00:00,0.0
2024-07-22 17:00:00+00:00,0.0
2024-07-22 18:00:00+00:00,0.0
2024-07-22 19:00:00+00:00,0.0
2024-07-23 13:00:00+00:00,0.0
2024-07-23 14:00:00+00:00,0.0
2024-07-23 15:00:00+00:00,0.0
2024-07-23 16:00:00+00:00,0.0
2024-07-23 17:00:00+00:00,0.0
2024-07-23 18:00:00+00:00,0.0
2024-07-23 19:00:00+00:00,0.0
2024-07-24 13:00:00+00:00,0.0
2024-07-24 14:00:00+00:00,0.0
2024-07-24 15:00:00+00:00,0.0
2024-07-24 16:00:00+00:00,0.0
2024-07-24 17:00:00+00:00,0.0
2024-07-24 18:00:00+00:00,0.0
2024-07-24 19:00:00+00:00,0.0
2024-07-25 13:00:00+00:00,0.0
2024-07-25 14:00:00+00:00,0.0
2024-07-25 15:00:00+00:00,0.0
2024-07-25 16:00:00+00:00,0.0
2024-07-25 17:00:00+00:00,0.0
2024-07-25 18:00:00+00:00,0.0
2024-07-25 19:00:00+00:00,0.0
2024-07-26 13:00:00+00:00,0.0
2024-07-26 14:00:00+00:00,0.0
2024-07-26 15:00:00+00:00,0.0
2024-07-26 16:00:00+00:00,0.0
2024-07-26 17:00:00+00:00,0.0
2024-07-26 18:00:00+00:00,0.0
2024-07-26 19:00:00+00:00,0.0
2024-07-29 13:00:00+00:00,0.0
2024-07-29 14:00:00+00:00,0.0
2024-07-29 15:00:00+00:00,0.0
2024-07-29 16:00:00+00:00,0.0
2024-07-29 17:00:00+00:00,0.0
2024-07-29 18:00:00+00:00,0.0
2024-07-29 19:00:00+00:00,0.0
2024-07-30 13:00:00+00:00,0.0
2024-07-30 14:00:00+00:00,0.0
2024-07-30 15:00:00+00:00,0.0
2024-07-30 16:00:00+00:00,0.0
2024-07-30 17:00:00+00:00,0.0
2024-07-30 18:00:00+00:00,0.0
2024-07-30 19:00:00+00:00,0.0
2024-07-31 13:00:00+00:00,0.0
2024-07-31 14:00:00+00:00,0.0
2024-07-31 15:00:00+00:00,0.0
2024-07-31 16:00:00+00:00,0.0
2024-07-31 17:00:00+00:00,0.0
2024-07-31 18:00:00+00:00,0.0
2024-07-31 19:00:00+00:00,0.0
2024-08-01 13:00:00+00:00,0.0
2024-08-01 14:00:00+00:00,0.0
2024-08-01 15:00:00+00:00,0.0
2024-08-01 16:00:00+00:00,0.0
2024-08-01 17:00:00+00:00,0.0
2024-08-01 18:00:00+00:00,0.0
2024-08-01 19:00:00+00:00,0.0
2024-08-02 13:00:00+00:00,0.0
2024-08-02 14:00:00+00:00,0.0
2024-08-02 15:00:00+00:00,0.0
2024-08-02 16:00:00+00:00,0.0
2024-08-02 17:00:00+00:00,0.0
2024-08-02 18:00:00+00:00,0.0
2024-08-02 19:00:00+00:00,0.0
2024-08-05 13:00:00+00:00,0.0
2024-08-05 14:00:00+00:00,0.0
2024-08-05 15:00:00+00:00,0.0
2024-08-05 16:00:00+00:00,0.0
2024-08-05 17:00:00+00:00,0.0
2024-08-05 18:00:00+00:00,0.0
2024-08-05 19:00:00+00:00,0.0
2024-08-06 13:00:00+00:00,0.0
2024-08-06 14:00:00+00:00,0.0
2024-08-06 15:00:00+00:00,0.0
2024-08-06 16:00:00+00:00,0.0
2024-08-06 17:00:00+00:00,0.0
2024-08-06 18:00:00+00:00,0.0
2024-08-06 19:00:00+00:00,0.0
2024-08-07 13:00:00+00:00,0.0
2024-08-07 14:00:00+00:00,0.0
2024-08-07 15:00:00+00:00,0.0
2024-08-07 16:00:00+00:00,0.0
2024-08-07 17:00:00+00:00,0.0
2024-08-07 18:00:00+00:00,0.0
2024-08-07 19:00:00+00:00,0.0
2024-08-08 13:00:00+00:00,0.0
2024-08-08 14:00:00+00:00,0.0
2024-08-08 15:00:00+00:00,0.0
2024-08-08 16:00:00+00:00,0.0
2024-08-08 17:00:00+00:00,0.0
2024-08-08 18:00:00+00:00,0.0
2024-08-08 19:00:00+00:00,0.0
2024-08-09 13:00:00+00:00,0.0
2024-08-09 14:00:00+00:00,0.0
2024-08-09 15:00:00+00:00,0.0
2024-08-09 16:00:00+00:00,0.0
2024-08-09 17:00:00+00:00,0.0
2024-08-09 18:00:00+00:00,0.0
2024-08-09 19:00:00+00:00,0.0
2024-08-12 13:00:00+00:00,0.0
2024-08-12 14:00:00+00:00,0.0
2024-08-12 15:00:00+00:00,0.0
2024-08-12 16:00:00+00:00,0.0
2024-08-12 17:00:00+00:00,0.0
2024-08-12 18:00:00+00:00,0.0
2024-08-12 19:00:00+00:00,0.0
2024-08-13 13:00:00+00:00,0.0
2024-08-13 14:00:00+00:00,0.0
2024-08-13 15:00:00+00:00,0.0
2024-08-13 16:00:00+00:00,0.0
2024-08-13 17:00:00+00:00,0.0
2024-08-13 18:00:00+00:00,0.0
2024-08-13 19:00:00+00:00,0.0
2024-08-14 13:00:00+00:00,0.0
2024-08-14 14:00:00+00:00,0.0
2024-08-14 15:00:00+00:00,0.0
2024-08-14 16:00:00+00:00,0.0
2024-08-14 17:00:00+00:00,0.0
2024-08-14 18:00:00+00:00,0.0
2024-08-14 19:00:00+00:00,0.0
2024-08-15 13:00:00+00:00,0.0
2024-08-15 14:00:00+00:00,0.0
2024-08-15 15:00:00+00:00,0.0
2024-08-15 16:00:00+00:00,0.0
2024-08-15 17:00:00+00:00,0.0
2024-08-15 18:00:00+00:00,0.0
2024-08-15 19:00:00+00:00,0.0
2024-08-16 13:00:00+00:00,0.0
2024-08-16 14:00:00+00:00,0.0
2024-08-16 15:00:00+00:00,0.0
2024-08-16 16:00:00+00:00,0.0
2024-08-16 17:00:00+00:00,0.0
2024-08-16 18:00:00+00:00,0.0
2024-08-16 19:00:00+00:00,0.0
2024-08-19 13:00:00+00:00,0.0
2024-08-19 14:00:00+00:00,0.0
2024-08-19 15:00:00+00:00,0.0
2024-08-19 16:00:00+00:00,0.0
2024-08-19 17:00:00+00:00,0.0
2024-08-19 18:00:00+00:00,0.0
2024-08-19 19:00:00+00:00,0.0
2024-08-20 13:00:00+00:00,0.0
2024-08-20 14:00:00+00:00,0.0
2024-08-20 15:00:00+00:00,0.0
2024-08-20 16:00:00+00:00,0.0
2024-08-20 17:00:00+00:00,0.0
2024-08-20 18:00:00+00:00,0.0
2024-08-20 19:00:00+00:00,0.0
2024-08-21 13:00:00+00:00,0.0
2024-08-21 14:00:00+00:00,0.0
2024-08-21 15:00:00+00:00,0.0
2024-08-21 16:00:00+00:00,0.0
2024-08-21 17:00:00+00:00,0.0
2024-08-21 18:00:00+00:00,0.0
2024-08-21 19:00:00+00:00,0.0
2024-08-22 13:00:00+00:00,0.0
2024-08-22 14:00:00+00:00,0.0
2024-08-22 15:00:00+00:00,0.0
2024-08-22 16:00:00+00:00,0.0
2024-08-22 17:00:00+00:00,0.0
2024-08-22 18:00:00+00:00,0.0
2024-08-22 19:00:00+00:00,0.0
2024-08-23 13:00:00+00:00,0.0
2024-08-23 14:00:00+00:00,0.0
2024-08-23 15:00:00+00:00,0.0
2024-08-23 16:00:00+00:00,0.0
2024-08-23 17:00:00+00:00,0.0
2024-08-23 18:00:00+00:00,0.0
2024-08-23 19:00:00+00:00,0.0
2024-08-26 13:00:00+00:00,0.0
2024-08-26 14:00:00+00:00,0.0
2024-08-26 15:00:00+00:00,0.0
2024-08-26 16:00:00+00:00,0.0
2024-08-26 17:00:00+00:00,0.0
2024-08-26 18:00:00+00:00,0.0
2024-08-26 19:00:00+00:00,0.0
2024-08-27 13:00:00+00:00,0.0
2024-08-27 14:00:00+00:00,0.0
2024-08-27 15:00:00+00:00,0.0
2024-08-27 16:00:00+00:00,0.0
2024-08-27 17:00:00+00:00,0.0
2024-08-27 18:00:00+00:00,0.0
2024-08-27 19:00:00+00:00,0.0
2024-08-28 13:00:00+00:00,0.0
2024-08-28 14:00:00+00:00,0.0
2024-08-28 15:00:00+00:00,0.0
2024-08-28 16:00:00+00:00,0.0
2024-08-28 17:00:00+00:00,0.0
2024-08-28 18:00:00+00:00,0.0
2024-08-28 19:00:00+00:00,0.0
2024-08-29 13:00:00+00:00,0.0
2024-08-29 14:00:00+00:00,0.0
2024-08-29 15:00:00+00:00,0.0
2024-08-29 16:00:00+00:00,0.0
2024-08-29 17:00:00+00:00,0.0
2024-08-29 18:00:00+00:00,0.0
2024-08-29 19:00:00+00:00,0.0
2024-08-30 13:00:00+00:00,0.0
2024-08-30 14:00:00+00:00,0.0
2024-08-30 15:00:00+00:00,0.0
2024-08-30 16:00:00+00:00,0.0
2024-08-30 17:00:00+00:00,0.0
2024-08-30 18:00:00+00:00,0.0
2024-08-30 19:00:00+00:00,0.0
2024-09-03 13:00:00+00:00,0.0
2024-09-03 14:00:00+00:00,0.0
2024-09-03 15:00:00+00:00,0.0
2024-09-03 16:00:00+00:00,0.0
2024-09-03 17:00:00+00:00,0.0
2024-09-03 18:00:00+00:00,0.0
2024-09-03 19:00:00+00:00,0.0
2024-09-04 13:00:00+00:00,0.0
2024-09-04 14:00:00+00:00,0.0
2024-09-04 15:00:00+00:00,0.0
2024-09-04 16:00:00+00:00,0.0
2024-09-04 17:00:00+00:00,0.0
2024-09-04 18:00:00+00:00,0.0
2024-09-04 19:00:00+00:00,0.0
2024-09-05 13:00:00+00:00,0.0
2024-09-05 14:00:00+00:00,0.0
2024-09-05 15:00:00+00:00,0.0
2024-09-05 16:00:00+00:00,0.0
2024-09-05 17:00:00+00:00,0.0
2024-09-05 18:00:00+00:00,0.0
2024-09-05 19:00:00+00:00,0.0
2024-09-06 13:00:00+00:00,0.0
2024-09-06 14:00:00+00:00,0.0
2024-09-06 15:00:00+00:00,0.0
2024-09-06 16:00:00+00:00,0.0
2024-09-06 17:00:00+00:00,0.0
2024-09-06 18:00:00+00:00,0.0
2024-09-06 19:00:00+00:00,0.0
2024-09-09 13:00:00+00:00,0.0
2024-09-09 14:00:00+00:00,0.0
2024-09-09 15:00:00+00:00,0.0
2024-09-09 16:00:00+00:00,0.0
2024-09-09 17:00:00+00:00,0.0
2024-09-09 18:00:00+00:00,0.0
2024-09-09 19:00:00+00:00,0.0
2024-09-10 13:00:00+00:00,0.0
2024-09-10 14:00:00+00:00,0.0
2024-09-10 15:00:00+00:00,0.0
2024-09-10 16:00:00+00:00,0.0
2024-09-10 17:00:00+00:00,0.0
2024-09-10 18:00:00+00:00,0.0
2024-09-10 19:00:00+00:00,0.0
2024-09-11 13:00:00+00:00,0.0
2024-09-11 14:00:00+00:00,0.0
2024-09-11 15:00:00+00:00,0.0
2024-09-11 16:00:00+00:00,0.0
2024-09-11 17:00:00+00:00,0.0
2024-09-11 18:00:00+00:00,0.0
2024-09-11 19:00:00+00:00,0.0
2024-09-12 13:00:00+00:00,0.0
2024-09-12 14:00:00+00:00,0.0
2024-09-12 15:00:00+00:00,0.0
2024-09-12 16:00:00+00:00,0.0
2024-09-12 17:00:00+00:00,0.0
2024-09-12 18:00:00+00:00,0.0
2024-09-12 19:00:00+00:00,0.0
2024-09-13 13:00:00+00:00,0.0
2024-09-13 14:00:00+00:00,0.0
2024-09-13 15:00:00+00:00,0.0
2024-09-13 16:00:00+00:00,0.0
2024-09-13 17:00:00+00:00,0.0
2024-09-13 18:00:00+00:00,0.0
2024-09-13 19:00:00+00:00,0.0
2024-09-16 13:00:00+00:00,0.0
2024-09-16 14:00:00+00:00,0.0
2024-09-16 15:00:00+00:00,0.0
2024-09-16 16:00:00+00:00,0.0
2024-09-16 17:00:00+00:00,0.0
2024-09-16 18:00:00+00:00,0.0
2024-09-16 19:00:00+00:00,0.0
2024-09-17 13:00:00+00:00,0.0
2024-09-17 14:00:00+00:00,0.0
2024-09-17 15:00:00+00:00,0.0
2024-09-17 16:00:00+00:00,0.0
2024-09-17 17:00:00+00:00,0.0
2024-09-17 18:00:00+00:00,0.0
2024-09-17 19:00:00+00:00,0.0
2024-09-18 13:00:00+00:00,0.0
2024-09-18 14:00:00+00:00,0.0
2024-09-18 15:00:00+00:00,0.0
2024-09-18 16:00:00+00:00,0.0
2024-09-18 17:00:00+00:00,0.0
2024-09-18 18:00:00+00:00,0.0
2024-09-18 19:00:00+00:00,0.0
2024-09-19 13:00:00+00:00,0.0
2024-09-19 14:00:00+00:00,0.0
2024-09-19 15:00:00+00:00,0.0
2024-09-19 16:00:00+00:00,0.0
2024-09-19 17:00:00+00:00,0.0
2024-09-19 18:00:00+00:00,0.0
2024-09-19 19:00:00+00:00,0.0
2024-09-20 13:00:00+00:00,0.0
2024-09-20 14:00:00+00:00,0.0
2024-09-20 15:00:00+00:00,0.0
2024-09-20 16:00:00+00:00,0.0
2024-09-20 17:00:00+00:00,0.0
2024-09-20 18:00:00+00:00,0.0
2024-09-20 19:00:00+00:00,0.0
2024-09-23 13:00:00+00:00,0.0
2024-09-23 14:00:00+00:00,0.0
2024-09-23 15:00:00+00:00,0.0
2024-09-23 16:00:00+00:00,0.0
2024-09-23 17:00:00+00:00,0.0
2024-09-23 18:00:00+00:00,0.0
2024-09-23 19:00:00+00:00,0.0
2024-09-24 13:00:00+00:00,0.0
2024-09-24 14:00:00+00:00,0.0
2024-09-24 15:00:00+00:00,0.0
2024-09-24 16:00:00+00:00,0.0
2024-09-24 17:00:00+00:00,0.0
2024-09-24 18:00:00+00:00,0.0
2024-09-24 19:00:00+00:00,0.0
2024-09-25 13:00:00+00:00,0.0
2024-09-25 14:00:00+00:00,0.0
2024-09-25 15:00:00+00:00,0.0
2024-09-25 16:00:00+00:00,0.0
2024-09-25 17:00:00+00:00,0.0
2024-09-25 18:00:00+00:00,0.0
2024-09-25 19:00:00+00:00,0.0
2024-09-26 13:00:00+00:00,0.0
2024-09-26 14:00:00+00:00,0.0
2024-09-26 15:00:00+00:00,0.0
2024-09-26 16:00:00+00:00,0.0
2024-09-26 17:00:00+00:00,0.0
2024-09-26 18:00:00+00:00,0.0
2024-09-26 19:00:00+00:00,0.0
2024-09-27 13:00:00+00:00,0.0
2024-09-27 14:00:00+00:00,0.0
2024-09-27 15:00:00+00:00,0.0
2024-09-27 16:00:00+00:00,0.0
2024-09-27 17:00:00+00:00,0.0
2024-09-27 18:00:00+00:00,0.0
2024-09-27 19:00:00+00:00,0.0
2024-09-30 13:00:00+00:00,0.0
2024-09-30 14:00:00+00:00,0.0
2024-09-30 15:00:00+00:00,0.0
2024-09-30 16:00:00+00:00,0.0
2024-09-30 17:00:00+00:00,0.0
2024-09-30 18:00:00+00:00,0.0
2024-09-30 19:00:00+00:00,0.0
2024-10-01 13:00:00+00:00,-64.05361933066189
2024-10-01 14:00:00+00:00,-35.601277374328276
2024-10-01 15:00:00+00:00,-30.945648455367838
2024-10-01 16:00:00+00:00,-39.40739759076013
2024-10-01 17:00:00+00:00,-6.531463621955325
2024-10-01 18:00:00+00:00,-10.288629568564563
2024-10-01 19:00:00+00:00,-24.67274957481309
2024-10-02 13:00:00+00:00,-88.49162770076944
2024-10-02 14:00:00+00:00,-91.97252661281374
2024-10-02 15:00:00+00:00,-70.19373322195642
2024-10-02 16:00:00+00:00,-67.33649156909767
2024-10-02 17:00:00+00:00,-53.69720286627766
2024-10-02 18:00:00+00:00,-49.40940657036063
2024-10-02 19:00:00+00:00,-63.983971834894625
2024-10-03 13:00:00+00:00,-96.31251785454656
2024-10-03 14:00:00+00:00,-61.09360168838606
2024-10-03 15:00:00+00:00,-64.96503889071732
2024-10-03 16:00:00+00:00,-31.6645382886946
2024-10-03 17:00:00+00:00,-26.667317404385106
2024-10-03 18:00:00+00:00,-35.13088240089981
2024-10-03 19:00:00+00:00,-47.57299166506981
2024-10-04 13:00:00+00:00,-83.82348813462173
2024-10-04 14:00:00+00:00,-115.3185389951567
2024-10-04 15:00:00+00:00,-103.32609658819365
2024-10-04 16:00:00+00:00,-110.37545776718545
2024-10-04 17:00:00+00:00,-92.95629618010835
2024-10-04 18:00:00+00:00,-101.15782584171771
2024-10-04 19:00:00+00:00,-94.875413367869
2024-10-07 13:00:00+00:00,-95.02495215551406
2024-10-07 14:00:00+00:00,-85.58776542761285
2024-10-07 15:00:00+00:00,-91.7384655907781
2024-10-07 16:00:00+00:00,-90.8770055844711
2024-10-07 17:00:00+00:00,-92.70127263211695
2024-10-07 18:00:00+00:00,-82.57666535944426
2024-10-07 19:00:00+00:00,-90.91956298603503
2024-10-08 13:00:00+00:00,-70.67530553762101
2024-10-08 14:00:00+00:00,-43.61301206493728
2024-10-08 15:00:00+00:00,-26.159272681946113
2024-10-08 16:00:00+00:00,-47.95007129367378
2024-10-08 17:00:00+00:00,-55.741922906522525
2024-10-08 18:00:00+00:00,-46.13256993044931
2024-10-08 19:00:00+00:00,-33.50783252292784
2024-10-09 13:00:00+00:00,-12.59882863372447
2024-10-09 14:00:00+00:00,-25.483731332948267
2024-10-09 15:00:00+00:00,-33.90296887920523
2024-10-09 16:00:00+00:00,-40.64357051744126
2024-10-09 17:00:00+00:00,-24.789279219424444
2024-10-09 18:00:00+00:00,-18.81524260334107
2024-10-09 19:00:00+00:00,-17.84505789624439
2024-10-10 13:00:00+00:00,-49.322770022804924
2024-10-10 14:00:00+00:00,-47.33743972339035
2024-10-10 15:00:00+00:00,-66.41982796676858
2024-10-10 16:00:00+00:00,-64.68622889224045
2024-10-10 17:00:00+00:00,-48.99939897978122
2024-10-10 18:00:00+00:00,-39.722375480950554
2024-10-10 19:00:00+00:00,-35.295095338999644
2024-10-11 13:00:00+00:00,-51.528557349121556
2024-10-11 14:00:00+00:00,-48.41869966623325
2024-10-11 15:00:00+00:00,-38.79977794639558
2024-10-11 16:00:00+00:00,-30.08122464289069
2024-10-11 17:00:00+00:00,-44.53368898277708
2024-10-11 18:00:00+00:00,-50.21526243656815
2024-10-11 19:00:00+00:00,-55.00714653594132
2024-10-14 13:00:00+00:00,-78.82359873575008
2024-10-14 14:00:00+00:00,-90.81875913185371
2024-10-14 15:00:00+00:00,-91.79036779064096
2024-10-14 16:00:00+00:00,-86.56911942877566
2024-10-14 17:00:00+00:00,-96.36618159608878
2024-10-14 18:00:00+00:00,-91.80104685255732
2024-10-14 19:00:00+00:00,-107.09366602361726
2024-10-15 13:00:00+00:00,-28.43373704511609
2024-10-15 14:00:00+00:00,-45.41073219922955
2024-10-15 15:00:00+00:00,-51.49278154025769
2024-10-15 16:00:00+00:00,-48.67004748870425
2024-10-15 17:00:00+00:00,-35.471429400756946
2024-10-15 18:00:00+00:00,-47.35417626319354
2024-10-15 19:00:00+00:00,-36.09303541778771
2024-10-16 13:00:00+00:00,-65.30443077417377
2024-10-16 14:00:00+00:00,-63.60111228991325
2024-10-16 15:00:00+00:00,-51.86248350310455
2024-10-16 16:00:00+00:00,-58.379863928047214
2024-10-16 17:00:00+00:00,-54.84517679937095
2024-10-16 18:00:00+00:00,-53.67429994176716
2024-10-16 19:00:00+00:00,-50.515392965091074
2024-10-17 13:00:00+00:00,-78.55903543624602
2024-10-17 14:00:00+00:00,-56.72884318503108
2024-10-17 15:00:00+00:00,-48.86348644854395
2024-10-17 16:00:00+00:00,-35.272308317277414
2024-10-17 17:00:00+00:00,-47.68393460358931
2024-10-17 18:00:00+00:00,-44.9895024223763
2024-10-17 19:00:00+00:00,-42.77009901845497
2024-10-18 13:00:00+00:00,-26.52854736672989
2024-10-18 14:00:00+00:00,-35.00201815434422
2024-10-18 15:00:00+00:00,-42.395329115075135
2024-10-18 16:00:00+00:00,-42.99057012110451
2024-10-18 17:00:00+00:00,-29.587931804139522
2024-10-18 18:00:00+00:00,-32.023445343331815
2024-10-18 19:00:00+00:00,-36.58026369887146
2024-10-21 13:00:00+00:00,-32.765554535632894
2024-10-21 14:00:00+00:00,-36.92728948359697
2024-10-21 15:00:00+00:00,-52.837567355738635
2024-10-21 16:00:00+00:00,-50.78122452864985
2024-10-21 17:00:00+00:00,-69.09281977044867
2024-10-21 18:00:00+00:00,-71.66782383015675
2024-10-21 19:00:00+00:00,-66.93420429345122
2024-10-22 13:00:00+00:00,-68.8061813685738
2024-10-22 14:00:00+00:00,-84.19854982528702
2024-10-22 15:00:00+00:00,-107.02111773226159
2024-10-22 16:00:00+00:00,-103.09399503535322
2024-10-22 17:00:00+00:00,-108.60762187413012
2024-10-22 18:00:00+00:00,-116.78046869484925
2024-10-22 19:00:00+00:00,-119.62428117514791
2024-10-23 13:00:00+00:00,-117.47611801367798
2024-10-23 14:00:00+00:00,-97.64699399127413
2024-10-23 15:00:00+00:00,-94.37153925994
2024-10-23 16:00:00+00:00,-91.71186578521952
2024-10-23 17:00:00+00:00,-88.99616563004035
2024-10-23 18:00:00+00:00,-89.82000748665703
2024-10-23 19:00:00+00:00,-105.42097077880045
2024-10-24 13:00:00+00:00,-91.79190764512015
2024-10-24 14:00:00+00:00,-85.9755741256059
2024-10-24 15:00:00+00:00,-82.8524428535476
2024-10-24 16:00:00+00:00,-77.91431785836514
2024-10-24 17:00:00+00:00,-84.42667018411939
2024-10-24 18:00:00+00:00,-85.27310326848617
2024-10-24 19:00:00+00:00,-81.9449104104857
2024-10-25 13:00:00+00:00,-86.24328797558209
2024-10-25 14:00:00+00:00,-86.98522337019624
2024-10-25 15:00:00+00:00,-105.96858644273367
2024-10-25 16:00:00+00:00,-115.54944689083779
2024-10-25 17:00:00+00:00,-124.4046452831087
2024-10-25 18:00:00+00:00,-124.46872149883447
2024-10-25 19:00:00+00:00,-115.17294407563219
2024-10-28 13:00:00+00:00,-93.94718345215566
2024-10-28 14:00:00+00:00,-91.76275564964936
2024-10-28 15:00:00+00:00,-97.2866368267262
2024-10-28 16:00:00+00:00,-94.72506193958095
2024-10-28 17:00:00+00:00,-105.38980941769205
2024-10-28 18:00:00+00:00,-101.22830121611588
2024-10-28 19:00:00+00:00,-116.90939105354337
2024-10-29 13:00:00+00:00,-126.35062581868407
2024-10-29 14:00:00+00:00,-98.01821252243974
2024-10-29 15:00:00+00:00,-103.37744794385745
2024-10-29 16:00:00+00:00,-69.8230974353209
2024-10-29 17:00:00+00:00,-70.27224028656491
2024-10-29 18:00:00+00:00,-67.7770513403704
2024-10-29 19:00:00+00:00,-77.9253133547448
2024-10-30 13:00:00+00:00,-80.82737729035395
2024-10-30 14:00:00+00:00,-86.21573658594724
2024-10-30 15:00:00+00:00,-61.490322743180755
2024-10-30 16:00:00+00:00,-62.620591170076445
2024-10-30 17:00:00+00:00,-53.15970192788332
2024-10-30 18:00:00+00:00,-51.734220228050866
2024-10-30 19:00:00+00:00,-49.278340235959746
2024-10-31 13:00:00+00:00,-86.59965855860645
2024-10-31 14:00:00+00:00,-78.2995450799658
2024-10-31 15:00:00+00:00,-55.48532645213096
2024-10-31 16:00:00+00:00,-63.72035226031853
2024-10-31 17:00:00+00:00,-42.22819727133758
2024-10-31 18:00:00+00:00,-16.97055621059
2024-10-31 19:00:00+00:00,-2.0533659700551183
2024-11-01 13:00:00+00:00,-24.171082396678152
2024-11-01 14:00:00+00:00,-24.584720868741446
2024-11-01 15:00:00+00:00,-14.23871687854069
2024-11-01 16:00:00+00:00,-4.389949595212016
2024-11-01 17:00:00+00:00,0.8994791384796947
2024-11-01 18:00:00+00:00,39.44840305537262
2024-11-01 19:00:00+00:00,55.11855534781316
2024-11-04 14:00:00+00:00,-53.94252833592731
2024-11-04 15:00:00+00:00,-38.641777261923316
2024-11-04 16:00:00+00:00,-59.364292578981406
2024-11-04 17:00:00+00:00,-59.54843158455918
2024-11-04 18:00:00+00:00,-61.63416922838225
2024-11-04 19:00:00+00:00,-76.04651033486894
2024-11-04 20:00:00+00:00,-72.45001190380242
2024-11-05 14:00:00+00:00,-90.39884246309103
2024-11-05 15:00:00+00:00,-93.28707668206368
2024-11-05 16:00:00+00:00,-83.43990047363178
2024-11-05 17:00:00+00:00,-84.41814015709697
2024-11-05 18:00:00+00:00,-88.30226506702141
2024-11-05 19:00:00+00:00,-104.22134455661221
2024-11-05 20:00:00+00:00,-117.59276356107453
2024-11-06 14:00:00+00:00,-91.30235653145375
2024-11-06 15:00:00+00:00,-58.361633402685484
2024-11-06 16:00:00+00:00,-74.62168717019796
2024-11-06 17:00:00+00:00,-70.47432011702752
2024-11-06 18:00:00+00:00,-67.83750472278291
2024-11-06 19:00:00+00:00,-69.39256280576045
2024-11-06 20:00:00+00:00,-69.51476152314953
2024-11-07 14:00:00+00:00,-83.5258034309712
2024-11-07 15:00:00+00:00,-59.325864395716394
2024-11-07 16:00:00+00:00,-71.20647533061559
2024-11-07 17:00:00+00:00,-91.75601593346843
2024-11-07 18:00:00+00:00,-105.32242680311322
2024-11-07 19:00:00+00:00,-108.31408629825206
2024-11-07 20:00:00+00:00,-101.8494038936388
2024-11-08 14:00:00+00:00,109.88066106217565
2024-11-08 15:00:00+00:00,109.88066106217565
2024-11-08 16:00:00+00:00,109.88066106217565
2024-11-08 17:00:00+00:00,109.88066106217565
2024-11-08 18:00:00+00:00,109.88066106217565
2024-11-08 19:00:00+00:00,109.88066106217565
2024-11-08 20:00:00+00:00,109.88066106217565
2024-11-11 14:00:00+00:00,109.88066106217565
2024-11-11 15:00:00+00:00,109.88066106217565
2024-11-11 16:00:00+00:00,109.88066106217565
2024-11-11 17:00:00+00:00,109.88066106217565
2024-11-11 18:00:00+00:00,109.88066106217565
2024-11-11 19:00:00+00:00,109.88066106217565
2024-11-11 20:00:00+00:00,109.88066106217565
2024-11-12 14:00:00+00:00,109.88066106217565
2024-11-12 15:00:00+00:00,109.88066106217565
2024-11-12 16:00:00+00:00,109.88066106217565
2024-11-12 17:00:00+00:00,109.88066106217565
2024-11-12 18:00:00+00:00,109.88066106217565
2024-11-12 19:00:00+00:00,109.88066106217565
2024-11-12 20:00:00+00:00,109.88066106217565
2024-11-13 14:00:00+00:00,109.88066106217565
2024-11-13 15:00:00+00:00,109.88066106217565
2024-11-13 16:00:00+00:00,109.88066106217565
2024-11-13 17:00:00+00:00,109.88066106217565
2024-11-13 18:00:00+00:00,109.88066106217565
2024-11-13 19:00:00+00:00,109.88066106217565
2024-11-13 20:00:00+00:00,109.88066106217565
2024-11-14 14:00:00+00:00,109.88066106217565
2024-11-14 15:00:00+00:00,109.88066106217565
2024-11-14 16:00:00+00:00,109.88066106217565
2024-11-14 17:00:00+00:00,109.88066106217565
2024-11-14 18:00:00+00:00,109.88066106217565
2024-11-14 19:00:00+00:00,109.88066106217565
2024-11-14 20:00:00+00:00,109.88066106217565
2024-11-15 14:00:00+00:00,109.88066106217565
2024-11-15 15:00:00+00:00,109.88066106217565
2024-11-15 16:00:00+00:00,109.88066106217565
2024-11-15 17:00:00+00:00,109.88066106217565
2024-11-15 18:00:00+00:00,109.88066106217565
2024-11-15 19:00:00+00:00,109.88066106217565
2024-11-15 20:00:00+00:00,109.88066106217565
2024-11-18 14:00:00+00:00,109.88066106217565
2024-11-18 15:00:00+00:00,109.88066106217565
2024-11-18 16:00:00+00:00,109.88066106217565
2024-11-18 17:00:00+00:00,109.88066106217565
2024-11-18 18:00:00+00:00,109.88066106217565
2024-11-18 19:00:00+00:00,109.88066106217565
2024-11-18 20:00:00+00:00,109.88066106217565
2024-11-19 14:00:00+00:00,109.88066106217565
2024-11-19 15:00:00+00:00,109.88066106217565
2024-11-19 16:00:00+00:00,109.88066106217565
2024-11-19 17:00:00+00:00,109.88066106217565
2024-11-19 18:00:00+00:00,109.88066106217565
2024-11-19 19:00:00+00:00,109.88066106217565
2024-11-19 20:00:00+00:00,109.88066106217565
2024-11-20 14:00:00+00:00,109.88066106217565
2024-11-20 15:00:00+00:00,109.88066106217565
2024-11-20 16:00:00+00:00,109.88066106217565
2024-11-20 17:00:00+00:00,109.88066106217565
2024-11-20 18:00:00+00:00,109.88066106217565
2024-11-20 19:00:00+00:00,109.88066106217565
2024-11-20 20:00:00+00:00,109.88066106217565
2024-11-21 14:00:00+00:00,109.88066106217565
2024-11-21 15:00:00+00:00,109.88066106217565
2024-11-21 16:00:00+00:00,109.88066106217565
2024-11-21 17:00:00+00:00,109.88066106217565
2024-11-21 18:00:00+00:00,109.88066106217565
2024-11-21 19:00:00+00:00,109.88066106217565
2024-11-21 20:00:00+00:00,109.88066106217565
2024-11-22 14:00:00+00:00,109.88066106217565
2024-11-22 15:00:00+00:00,109.88066106217565
2024-11-22 16:00:00+00:00,109.88066106217565
2024-11-22 17:00:00+00:00,109.88066106217565
2024-11-22 18:00:00+00:00,109.88066106217565
2024-11-22 19:00:00+00:00,109.88066106217565
2024-11-22 20:00:00+00:00,109.88066106217565
2024-11-25 14:00:00+00:00,109.88066106217565
2024-11-25 15:00:00+00:00,109.88066106217565
2024-11-25 16:00:00+00:00,109.88066106217565
2024-11-25 17:00:00+00:00,109.88066106217565
2024-11-25 18:00:00+00:00,109.88066106217565
2024-11-25 19:00:00+00:00,109.88066106217565
2024-11-25 20:00:00+00:00,109.88066106217565
2024-11-26 14:00:00+00:00,109.88066106217565
2024-11-26 15:00:00+00:00,109.88066106217565
2024-11-26 16:00:00+00:00,109.88066106217565
2024-11-26 17:00:00+00:00,109.88066106217565
2024-11-26 18:00:00+00:00,109.88066106217565
2024-11-26 19:00:00+00:00,109.88066106217565
2024-11-26 20:00:00+00:00,109.88066106217565
2024-11-27 14:00:00+00:00,109.88066106217565
2024-11-27 15:00:00+00:00,109.88066106217565
2024-11-27 16:00:00+00:00,109.88066106217565
2024-11-27 17:00:00+00:00,109.88066106217565
2024-11-27 18:00:00+00:00,109.88066106217565
2024-11-27 19:00:00+00:00,109.88066106217565
2024-11-27 20:00:00+00:00,109.88066106217565
2024-11-29 14:00:00+00:00,109.88066106217565
2024-11-29 15:00:00+00:00,109.88066106217565
2024-11-29 16:00:00+00:00,109.88066106217565
2024-12-02 14:00:00+00:00,109.88066106217565
2024-12-02 15:00:00+00:00,109.88066106217565
2024-12-02 16:00:00+00:00,109.88066106217565
2024-12-02 17:00:00+00:00,109.88066106217565
2024-12-02 18:00:00+00:00,109.88066106217565
2024-12-02 19:00:00+00:00,109.88066106217565
2024-12-02 20:00:00+00:00,109.88066106217565
2024-12-03 14:00:00+00:00,109.88066106217565
2024-12-03 15:00:00+00:00,109.88066106217565
2024-12-03 16:00:00+00:00,109.88066106217565
2024-12-03 17:00:00+00:00,109.88066106217565
2024-12-03 18:00:00+00:00,109.88066106217565
2024-12-03 19:00:00+00:00,109.88066106217565
2024-12-03 20:00:00+00:00,109.88066106217565
2024-12-04 14:00:00+00:00,109.88066106217565
2024-12-04 15:00:00+00:00,109.88066106217565
2024-12-04 16:00:00+00:00,109.88066106217565
2024-12-04 17:00:00+00:00,109.88066106217565
2024-12-04 18:00:00+00:00,109.88066106217565
2024-12-04 19:00:00+00:00,109.88066106217565
2024-12-04 20:00:00+00:00,109.88066106217565
2024-12-05 14:00:00+00:00,109.88066106217565
2024-12-05 15:00:00+00:00,109.88066106217565
2024-12-05 16:00:00+00:00,109.88066106217565
2024-12-05 17:00:00+00:00,109.88066106217565
2024-12-05 18:00:00+00:00,109.88066106217565
2024-12-05 19:00:00+00:00,109.88066106217565
2024-12-05 20:00:00+00:00,109.88066106217565
2024-12-06 14:00:00+00:00,109.88066106217565
2024-12-06 15:00:00+00:00,109.88066106217565
2024-12-06 16:00:00+00:00,109.88066106217565
2024-12-06 17:00:00+00:00,109.88066106217565
2024-12-06 18:00:00+00:00,109.88066106217565
2024-12-06 19:00:00+00:00,109.88066106217565
2024-12-06 20:00:00+00:00,109.88066106217565
2024-12-09 14:00:00+00:00,109.88066106217565
2024-12-09 15:00:00+00:00,109.88066106217565
2024-12-09 16:00:00+00:00,109.88066106217565
2024-12-09 17:00:00+00:00,109.88066106217565
2024-12-09 18:00:00+00:00,109.88066106217565
2024-12-09 19:00:00+00:00,109.88066106217565
2024-12-09 20:00:00+00:00,109.88066106217565
2024-12-10 14:00:00+00:00,59.96088306129958
2024-12-10 15:00:00+00:00,127.51284293270349
2024-12-10 16:00:00+00:00,118.82182785583302
2024-12-10 17:00:00+00:00,132.07959754111621
2024-12-10 18:00:00+00:00,138.88195240417247
2024-12-10 19:00:00+00:00,151.09967497791186
2024-12-10 20:00:00+00:00,132.30170932254075
2024-12-11 14:00:00+00:00,70.57885177637556
2024-12-11 15:00:00+00:00,68.67146113412402
2024-12-11 16:00:00+00:00,65.92528766708398
2024-12-11 17:00:00+00:00,79.75185693423927
2024-12-11 18:00:00+00:00,77.56419470469612
2024-12-11 19:00:00+00:00,69.31491164316566
2024-12-11 20:00:00+00:00,60.38473190197474
2024-12-12 14:00:00+00:00,55.78921462107304
2024-12-12 15:00:00+00:00,57.55492462536192
2024-12-12 16:00:00+00:00,57.72308595279939
2024-12-12 17:00:00+00:00,81.68815879465589
2024-12-12 18:00:00+00:00,77.52587570773518
2024-12-12 19:00:00+00:00,106.0844933686925
2024-12-12 20:00:00+00:00,85.94728590225557
2024-12-13 14:00:00+00:00,38.0223293626845
2024-12-13 15:00:00+00:00,45.56820968067745
2024-12-13 16:00:00+00:00,33.57046518154877
2024-12-13 17:00:00+00:00,25.303684312945972
2024-12-13 18:00:00+00:00,16.6706936389782
2024-12-13 19:00:00+00:00,22.961413992173863
2024-12-13 20:00:00+00:00,23.72340218539032
2024-12-16 14:00:00+00:00,-6.6851117682446315
2024-12-16 15:00:00+00:00,-17.428092143743775
2024-12-16 16:00:00+00:00,-34.173660719026266
2024-12-16 17:00:00+00:00,-38.9619243562379
2024-12-16 18:00:00+00:00,-44.55063325572898
2024-12-16 19:00:00+00:00,-39.819841542602035
2024-12-16 20:00:00+00:00,-45.70688314158711
2024-12-17 14:00:00+00:00,-22.446714686899384
2024-12-17 15:00:00+00:00,-53.45275603955075
2024-12-17 16:00:00+00:00,-63.43804836413669
2024-12-17 17:00:00+00:00,-56.43965101909428
2024-12-17 18:00:00+00:00,-59.609856727835044
2024-12-17 19:00:00+00:00,-40.73469131694905
2024-12-17 20:00:00+00:00,-27.82387095526551
2024-12-18 14:00:00+00:00,13.815073445196074
2024-12-18 15:00:00+00:00,36.58734690438307
2024-12-18 16:00:00+00:00,29.63101888892772
2024-12-18 17:00:00+00:00,14.709853529659853
2024-12-18 18:00:00+00:00,17.558110069229937
2024-12-18 19:00:00+00:00,18.63748286350335
2024-12-18 20:00:00+00:00,-15.730813389643316
2024-12-19 14:00:00+00:00,11.81589536700298
2024-12-19 15:00:00+00:00,-14.304280022428216
2024-12-19 16:00:00+00:00,-8.224918425760707
2024-12-19 17:00:00+00:00,-20.807866544588734
2024-12-19 18:00:00+00:00,-21.917956273708057
2024-12-19 19:00:00+00:00,-32.79416782997818
2024-12-19 20:00:00+00:00,-27.282977489985946
2024-12-20 14:00:00+00:00,-61.33341745452824
2024-12-20 15:00:00+00:00,-44.337185674678246
2024-12-20 16:00:00+00:00,-52.62367194922201
2024-12-20 17:00:00+00:00,-60.22547467156407
2024-12-20 18:00:00+00:00,-48.28612174751555
2024-12-20 19:00:00+00:00,-34.70212951659504
2024-12-20 20:00:00+00:00,-28.323816178011395
2024-12-23 14:00:00+00:00,-48.990970316087356
2024-12-23 15:00:00+00:00,-63.395465271018196
2024-12-23 16:00:00+00:00,-44.40442517258012
2024-12-23 17:00:00+00:00,-46.765550851175924
2024-12-23 18:00:00+00:00,-51.7073020916806
2024-12-23 19:00:00+00:00,-44.16392419219095
2024-12-23 20:00:00+00:00,-28.246742542685787
2024-12-24 14:00:00+00:00,-5.951017739705591
2024-12-24 15:00:00+00:00,-9.10183684648972
2024-12-24 16:00:00+00:00,-21.531149182449987
2024-12-26 14:00:00+00:00,-36.995396654866035
2024-12-26 15:00:00+00:00,-28.295157200224494
2024-12-26 16:00:00+00:00,-44.74986852987288
2024-12-26 17:00:00+00:00,-42.11483530125392
2024-12-26 18:00:00+00:00,-59.49340171314091
2024-12-26 19:00:00+00:00,-48.008660511722155
2024-12-26 20:00:00+00:00,-35.800809206500034
2024-12-27 14:00:00+00:00,-8.340843387126839
2024-12-27 15:00:00+00:00,-11.915277659753286
2024-12-27 16:00:00+00:00,-33.69080093942167
2024-12-27 17:00:00+00:00,-34.55496803140481
2024-12-27 18:00:00+00:00,-25.55198899903936
2024-12-27 19:00:00+00:00,-33.295572361246116
2024-12-27 20:00:00+00:00,-33.315057235071585
2024-12-30 14:00:00+00:00,-68.59870388338138
2024-12-30 15:00:00+00:00,-81.48095967920425
2024-12-30 16:00:00+00:00,-67.88558188550991
2024-12-30 17:00:00+00:00,-62.82722745073676
2024-12-30 18:00:00+00:00,-61.56529294982734
2024-12-30 19:00:00+00:00,-51.90109281330692
2024-12-30 20:00:00+00:00,-80.36315491049754
2024-12-31 14:00:00+00:00,-51.1013417500678
2024-12-31 15:00:00+00:00,-40.75351615731304
2024-12-31 16:00:00+00:00,-29.846780349992493
2024-12-31 17:00:00+00:00,-20.766272040913144
2024-12-31 18:00:00+00:00,-30.983779036859186
2024-12-31 19:00:00+00:00,-32.05587639354093
2024-12-31 20:00:00+00:00,-33.43119344577975
2025-01-02 14:00:00+00:00,-63.28127428404592
2025-01-02 15:00:00+00:00,-92.02288001026871
2025-01-02 16:00:00+00:00,-88.06274177568031
2025-01-02 17:00:00+00:00,-111.9383223475863
2025-01-02 18:00:00+00:00,-104.21122787612
2025-01-02 19:00:00+00:00,-105.58903706458591
2025-01-02 20:00:00+00:00,-110.89772661716914
2025-01-03 14:00:00+00:00,-112.69028638872521
2025-01-03 15:00:00+00:00,-114.14549729927376
2025-01-03 16:00:00+00:00,-105.09789144517698
2025-01-03 17:00:00+00:00,-118.03807723197554
2025-01-03 18:00:00+00:00,-115.667764306701
2025-01-03 19:00:00+00:00,-125.89751449809678
2025-01-03 20:00:00+00:00,-134.21548383335738
2025-01-06 14:00:00+00:00,-101.7838306701041
2025-01-06 15:00:00+00:00,-107.79635670200885
2025-01-06 16:00:00+00:00,-114.4344315027458
2025-01-06 17:00:00+00:00,-111.55342015944012
2025-01-06 18:00:00+00:00,-128.55010909162084
2025-01-06 19:00:00+00:00,-128.56937885615926
2025-01-06 20:00:00+00:00,-136.87448800449644
2025-01-07 14:00:00+00:00,-71.00946782238418
2025-01-07 15:00:00+00:00,-88.89183514878295
2025-01-07 16:00:00+00:00,-95.88694565092263
2025-01-07 17:00:00+00:00,-98.81622402064556
2025-01-07 18:00:00+00:00,-103.38361237708837
2025-01-07 19:00:00+00:00,-111.6694239125667
2025-01-07 20:00:00+00:00,-112.82567379842483
2025-01-08 14:00:00+00:00,-218.69636942310166
2025-01-08 15:00:00+00:00,-229.02508127077903
2025-01-08 16:00:00+00:00,-210.04980766622495
2025-01-08 17:00:00+00:00,-242.30254707922933
2025-01-08 18:00:00+00:00,-251.6611744595993
2025-01-08 19:00:00+00:00,-247.52461981472953
2025-01-08 20:00:00+00:00,-241.62794990483192
2025-01-10 14:00:00+00:00,-318.0062828302929
2025-01-10 15:00:00+00:00,-342.4693655641883
2025-01-10 16:00:00+00:00,-322.55414375898664
2025-01-10 17:00:00+00:00,-329.52022620554266
2025-01-10 18:00:00+00:00,-369.6889936544584
2025-01-10 19:00:00+00:00,-361.9904691716836
2025-01-10 20:00:00+00:00,-349.85040984317936
2025-01-13 14:00:00+00:00,-314.4057892707502
2025-01-13 15:00:00+00:00,-313.8160100818203
2025-01-13 16:00:00+00:00,-327.06527170814843
2025-01-13 17:00:00+00:00,-335.4081375031391
2025-01-13 18:00:00+00:00,-299.613804664956
2025-01-13 19:00:00+00:00,-302.21517908356077
2025-01-13 20:00:00+00:00,-285.7488754098032
2025-01-14 14:00:00+00:00,-335.38860621544814
2025-01-14 15:00:00+00:00,-342.0274633098921
2025-01-14 16:00:00+00:00,-350.1402710260958
2025-01-14 17:00:00+00:00,-345.14950660147355
2025-01-14 18:00:00+00:00,-329.0488733969775
2025-01-14 19:00:00+00:00,-322.6610261594095
2025-01-14 20:00:00+00:00,-299.56584421436725
2025-01-15 14:00:00+00:00,-230.66489738357114
2025-01-15 15:00:00+00:00,-211.25966846363073
2025-01-15 16:00:00+00:00,-229.0942381440952
2025-01-15 17:00:00+00:00,-217.51314968287178
2025-01-15 18:00:00+00:00,-216.40531445455036
2025-01-15 19:00:00+00:00,-230.24109881670526
2025-01-15 20:00:00+00:00,-235.11666715278108
2025-01-16 14:00:00+00:00,-262.40361058733026
2025-01-16 15:00:00+00:00,-281.96260141032775
2025-01-16 16:00:00+00:00,-267.6103955123353
2025-01-16 17:00:00+00:00,-265.7084214120617
2025-01-16 18:00:00+00:00,-266.0454104780491
2025-01-16 19:00:00+00:00,-267.29868311019464
2025-01-16 20:00:00+00:00,-274.1006108672041
2025-01-17 14:00:00+00:00,-181.8348269352068
2025-01-17 15:00:00+00:00,-174.45380122176195
2025-01-17 16:00:00+00:00,-157.13775108729536
2025-01-17 17:00:00+00:00,-174.20365878774774
2025-01-17 18:00:00+00:00,-192.23085798710514
2025-01-17 19:00:00+00:00,-161.95746992001614
2025-01-17 20:00:00+00:00,-175.4367896251344
2025-01-21 14:00:00+00:00,-183.40444621776317
2025-01-21 15:00:00+00:00,-191.54651180443915
2025-01-21 16:00:00+00:00,-174.13574455078162
2025-01-21 17:00:00+00:00,-181.3329016333824
2025-01-21 18:00:00+00:00,-186.67092490281635
2025-01-21 19:00:00+00:00,-188.08312781865448
2025-01-21 20:00:00+00:00,-207.1075661664402
2025-01-22 14:00:00+00:00,-199.5819696565596
2025-01-22 15:00:00+00:00,-205.04509199132113
2025-01-22 16:00:00+00:00,-224.34452331873507
2025-01-22 17:00:00+00:00,-221.12623103921783
2025-01-22 18:00:00+00:00,-222.5713501491328
2025-01-22 19:00:00+00:00,-240.91942796924593
2025-01-22 20:00:00+00:00,-257.3540743214423
2025-01-23 14:00:00+00:00,-217.83093940786682
2025-01-23 15:00:00+00:00,-224.90266547843996
2025-01-23 16:00:00+00:00,-230.269622391529
2025-01-23 17:00:00+00:00,-223.45774291226348
2025-01-23 18:00:00+00:00,-221.41487587121577
2025-01-23 19:00:00+00:00,-222.06975293406825
2025-01-23 20:00:00+00:00,-222.93711503032176
2025-01-24 14:00:00+00:00,-249.95373242959198
2025-01-24 15:00:00+00:00,-230.79929825724204
2025-01-24 16:00:00+00:00,-231.0014616751205
2025-01-24 17:00:00+00:00,-249.78024655504657
2025-01-24 18:00:00+00:00,-236.1755553944842
2025-01-24 19:00:00+00:00,-239.29259806174008
2025-01-24 20:00:00+00:00,-241.80216621508342
2025-01-27 14:00:00+00:00,-258.3366363661873
2025-01-27 15:00:00+00:00,-225.13370298338924
2025-01-27 16:00:00+00:00,-195.20680075017847
2025-01-27 17:00:00+00:00,-176.84239737554822
2025-01-27 18:00:00+00:00,-172.63859100462074
2025-01-27 19:00:00+00:00,-164.94327466883246
2025-01-27 20:00:00+00:00,-162.0812357970114
2025-01-28 14:00:00+00:00,-177.66087590171196
2025-01-28 15:00:00+00:00,-178.33547307610937
2025-01-28 16:00:00+00:00,-199.49411406307055
2025-01-28 17:00:00+00:00,-212.27034787430844
2025-01-28 18:00:00+00:00,-230.58657568906608
2025-01-28 19:00:00+00:00,-229.94628179837122
2025-01-28 20:00:00+00:00,-232.49430756079195
2025-01-29 14:00:00+00:00,-217.27866045631035
2025-01-29 15:00:00+00:00,-218.4465163605618
2025-01-29 16:00:00+00:00,-221.5680961624202
2025-01-29 17:00:00+00:00,-219.3710261540828
2025-01-29 18:00:00+00:00,-219.50616132340383
2025-01-29 19:00:00+00:00,-205.77650650047707
2025-01-29 20:00:00+00:00,-196.42018519058803
2025-01-30 14:00:00+00:00,-158.33276703096337
2025-01-30 15:00:00+00:00,-169.90487949485168
2025-01-30 16:00:00+00:00,-165.3757969926549
2025-01-30 17:00:00+00:00,-148.1488186635184
2025-01-30 18:00:00+00:00,-127.8762423529304
2025-01-30 19:00:00+00:00,-141.2886320813573
2025-01-30 20:00:00+00:00,-131.44134855308332
2025-01-31 14:00:00+00:00,-136.62413432114045
2025-01-31 15:00:00+00:00,-92.71692334320568
2025-01-31 16:00:00+00:00,-143.99519049419837
2025-01-31 17:00:00+00:00,-153.6397712684924
2025-01-31 18:00:00+00:00,-185.56066239549077
2025-01-31 19:00:00+00:00,-179.09540415306506
2025-01-31 20:00:00+00:00,-169.7494748822494
2025-02-03 14:00:00+00:00,-195.76453670099227
2025-02-03 15:00:00+00:00,-187.37248264881381
2025-02-03 16:00:00+00:00,-209.86041989483257
2025-02-03 17:00:00+00:00,-190.33966293964409
2025-02-03 18:00:00+00:00,-174.46132491759738
2025-02-03 19:00:00+00:00,-178.9292215644318
2025-02-03 20:00:00+00:00,-173.17990554286249
2025-02-04 14:00:00+00:00,-111.70823424757174
2025-02-04 15:00:00+00:00,-79.31528544887149
2025-02-04 16:00:00+00:00,-79.18956734111978
2025-02-04 17:00:00+00:00,-93.92139520280466
2025-02-04 18:00:00+00:00,-79.91235864093836
2025-02-04 19:00:00+00:00,-69.94964148934133
2025-02-04 20:00:00+00:00,-63.62915058708902
2025-02-05 14:00:00+00:00,-75.71116694714485
2025-02-05 15:00:00+00:00,-80.49036403503499
2025-02-05 16:00:00+00:00,-80.33594595846064
2025-02-05 17:00:00+00:00,-72.28672387287425
2025-02-05 18:00:00+00:00,-73.57235501654134
2025-02-05 19:00:00+00:00,-71.35601524366629
2025-02-05 20:00:00+00:00,-55.66988966465814
2025-02-06 14:00:00+00:00,-51.690229425151536
2025-02-06 15:00:00+00:00,-75.63348513636114
2025-02-06 16:00:00+00:00,-106.02284616287429
2025-02-06 17:00:00+00:00,-85.11465713114018
2025-02-06 18:00:00+00:00,-79.23703259372404
2025-02-06 19:00:00+00:00,-103.9994732784247
2025-02-06 20:00:00+00:00,-108.9714221454577
2025-02-07 14:00:00+00:00,-75.0172868654921
2025-02-07 15:00:00+00:00,-85.05707765241394
2025-02-07 16:00:00+00:00,-73.88363398693238
2025-02-07 17:00:00+00:00,-67.11651383568451
2025-02-07 18:00:00+00:00,-67.72965471489776
2025-02-07 19:00:00+00:00,-62.66495917576005
2025-02-07 20:00:00+00:00,-74.91124631536051
2025-02-10 14:00:00+00:00,-75.49961431601785
2025-02-10 15:00:00+00:00,-61.00807076254522
2025-02-10 16:00:00+00:00,-59.49006098309627
2025-02-10 17:00:00+00:00,-59.17162435566755
2025-02-10 18:00:00+00:00,-74.69032689647626
2025-02-10 19:00:00+00:00,-87.8613722100349
2025-02-10 20:00:00+00:00,-76.18400148972279
2025-02-11 14:00:00+00:00,-97.50651474591999
2025-02-11 15:00:00+00:00,-92.82415625587713
2025-02-11 16:00:00+00:00,-87.30228885138965
2025-02-11 17:00:00+00:00,-77.78304795518622
2025-02-11 18:00:00+00:00,-77.02282144560562
2025-02-11 19:00:00+00:00,-89.75051833906129
2025-02-11 20:00:00+00:00,-85.2510403596412
2025-02-12 14:00:00+00:00,-231.62812082441877
2025-02-12 15:00:00+00:00,-259.0530934273562
2025-02-12 16:00:00+00:00,-251.24468184336862
2025-02-12 17:00:00+00:00,-241.8021290839887
2025-02-12 18:00:00+00:00,-220.35356963328076
2025-02-12 19:00:00+00:00,-216.1337643484661
2025-02-12 20:00:00+00:00,-227.76327289005866
2025-02-13 14:00:00+00:00,-196.99793834430523
2025-02-13 15:00:00+00:00,-178.2236654717512
2025-02-13 16:00:00+00:00,-194.59936109160984
2025-02-13 17:00:00+00:00,-180.03112632502217
2025-02-13 18:00:00+00:00,-175.00117456601666
2025-02-13 19:00:00+00:00,-174.23019300071948
2025-02-13 20:00:00+00:00,-191.6026319746414
2025-02-14 14:00:00+00:00,-193.20245467266304
2025-02-14 15:00:00+00:00,-181.71771347124465
2025-02-14 16:00:00+00:00,-188.63527756556226
2025-02-14 17:00:00+00:00,-183.6826077458432
2025-02-14 18:00:00+00:00,-202.46141119131542
2025-02-14 19:00:00+00:00,-202.07624656545457
2025-02-14 20:00:00+00:00,-194.12715714997992
2025-02-18 14:00:00+00:00,-111.36153716434985
2025-02-18 15:00:00+00:00,-125.81431137385584
2025-02-18 16:00:00+00:00,-128.46403388639035
2025-02-18 17:00:00+00:00,-116.29539142648122
2025-02-18 18:00:00+00:00,-125.2273524079121
2025-02-18 19:00:00+00:00,-126.49881152503356
2025-02-18 20:00:00+00:00,-134.7946962955993
2025-02-19 14:00:00+00:00,-149.296300654305
2025-02-19 15:00:00+00:00,-156.4741562641031
2025-02-19 16:00:00+00:00,-182.9031770894577
2025-02-19 17:00:00+00:00,-203.44548054264325
2025-02-19 18:00:00+00:00,-215.41229153137715
2025-02-19 19:00:00+00:00,-229.29659424576965
2025-02-19 20:00:00+00:00,-229.0847986570364
2025-02-20 14:00:00+00:00,-198.56041929861925
2025-02-20 15:00:00+00:00,-175.10842604423513
2025-02-20 16:00:00+00:00,-157.5870079805545
2025-02-20 17:00:00+00:00,-165.76295098036698
2025-02-20 18:00:00+00:00,-153.33067345502533
2025-02-20 19:00:00+00:00,-152.17730905222712
2025-02-20 20:00:00+00:00,-164.2210064153212
2025-02-21 14:00:00+00:00,-184.62846565485083
2025-02-21 15:00:00+00:00,-175.93744129520846
2025-02-21 16:00:00+00:00,-173.00816292548393
2025-02-21 17:00:00+00:00,-162.00438655374512
2025-02-21 18:00:00+00:00,-144.33363344587738
2025-02-21 19:00:00+00:00,-154.50814232626345
2025-02-21 20:00:00+00:00,-165.08784932521078
2025-02-24 14:00:00+00:00,-153.33250583845188
2025-02-24 15:00:00+00:00,-129.64003945199988
2025-02-24 16:00:00+00:00,-129.9505131144764
2025-02-24 17:00:00+00:00,-129.929264611137
2025-02-24 18:00:00+00:00,-131.48064480329828
2025-02-24 19:00:00+00:00,-145.96190387234225
2025-02-24 20:00:00+00:00,-148.0144177898475
2025-02-25 14:00:00+00:00,-151.261018534903
2025-02-25 15:00:00+00:00,-208.53212873734827
2025-02-25 16:00:00+00:00,-182.9894062631985
2025-02-25 17:00:00+00:00,-188.50081713530705
2025-02-25 18:00:00+00:00,-190.06138457414784
2025-02-25 19:00:00+00:00,-180.32845120157612
2025-02-25 20:00:00+00:00,-167.01460414392855
2025-02-26 14:00:00+00:00,-167.57288556653842
2025-02-26 15:00:00+00:00,-171.58087669707288
2025-02-26 16:00:00+00:00,-172.9491241382336
2025-02-26 17:00:00+00:00,-153.63083626219304
2025-02-26 18:00:00+00:00,-140.7101631975384
2025-02-26 19:00:00+00:00,-137.68462113427373
2025-02-26 20:00:00+00:00,-140.44033778307318
2025-02-27 14:00:00+00:00,-102.32425678571981
2025-02-27 15:00:00+00:00,-114.39696363884863
2025-02-27 16:00:00+00:00,-106.68904066005152
2025-02-27 17:00:00+00:00,-95.45454016451659
2025-02-27 18:00:00+00:00,-102.95987336680615
2025-02-27 19:00:00+00:00,-118.64598580309982
2025-02-27 20:00:00+00:00,-123.65645949360368
2025-02-28 14:00:00+00:00,30.526229820941296
2025-02-28 15:00:00+00:00,25.785809796902605
2025-02-28 16:00:00+00:00,23.08782659534073
2025-02-28 17:00:00+00:00,10.832085263077008
2025-02-28 18:00:00+00:00,45.614626034364875
2025-02-28 19:00:00+00:00,60.72251640438462
2025-02-28 20:00:00+00:00,48.46655068006238
2025-03-03 14:00:00+00:00,116.46257856161544
2025-03-03 15:00:00+00:00,116.46257856161544
2025-03-03 16:00:00+00:00,116.46257856161544
2025-03-03 17:00:00+00:00,116.46257856161544
2025-03-03 18:00:00+00:00,116.46257856161544
2025-03-03 19:00:00+00:00,116.46257856161544
2025-03-03 20:00:00+00:00,116.46257856161544
2025-03-04 14:00:00+00:00,116.46257856161544
2025-03-04 15:00:00+00:00,116.46257856161544
2025-03-04 16:00:00+00:00,116.46257856161544
2025-03-04 17:00:00+00:00,116.46257856161544
2025-03-04 18:00:00+00:00,116.46257856161544
2025-03-04 19:00:00+00:00,116.46257856161544
2025-03-04 20:00:00+00:00,116.46257856161544
2025-03-05 14:00:00+00:00,116.46257856161544
2025-03-05 15:00:00+00:00,116.46257856161544
2025-03-05 16:00:00+00:00,116.46257856161544
2025-03-05 17:00:00+00:00,116.46257856161544
2025-03-05 18:00:00+00:00,116.46257856161544
2025-03-05 19:00:00+00:00,116.46257856161544
2025-03-05 20:00:00+00:00,116.46257856161544
2025-03-06 14:00:00+00:00,116.46257856161544
2025-03-06 15:00:00+00:00,116.46257856161544
2025-03-06 16:00:00+00:00,116.46257856161544
2025-03-06 17:00:00+00:00,116.46257856161544
2025-03-06 18:00:00+00:00,116.46257856161544
2025-03-06 19:00:00+00:00,116.46257856161544
2025-03-06 20:00:00+00:00,116.46257856161544
2025-03-07 14:00:00+00:00,116.46257856161544
2025-03-07 15:00:00+00:00,116.46257856161544
2025-03-07 16:00:00+00:00,116.46257856161544
2025-03-07 17:00:00+00:00,116.46257856161544
2025-03-07 18:00:00+00:00,116.46257856161544
2025-03-07 19:00:00+00:00,116.46257856161544
2025-03-07 20:00:00+00:00,116.46257856161544
2025-03-10 13:00:00+00:00,116.46257856161544
2025-03-10 14:00:00+00:00,116.46257856161544
2025-03-10 15:00:00+00:00,116.46257856161544
2025-03-10 16:00:00+00:00,116.46257856161544
2025-03-10 17:00:00+00:00,116.46257856161544
2025-03-10 18:00:00+00:00,116.46257856161544
2025-03-10 19:00:00+00:00,116.46257856161544
2025-03-11 13:00:00+00:00,116.46257856161544
2025-03-11 14:00:00+00:00,116.46257856161544
2025-03-11 15:00:00+00:00,116.46257856161544
2025-03-11 16:00:00+00:00,116.46257856161544
2025-03-11 17:00:00+00:00,116.46257856161544
2025-03-11 18:00:00+00:00,116.46257856161544
2025-03-11 19:00:00+00:00,116.46257856161544
2025-03-12 13:00:00+00:00,116.46257856161544
2025-03-12 14:00:00+00:00,116.46257856161544
2025-03-12 15:00:00+00:00,116.46257856161544
2025-03-12 16:00:00+00:00,116.46257856161544
2025-03-12 17:00:00+00:00,116.46257856161544
2025-03-12 18:00:00+00:00,116.46257856161544
2025-03-12 19:00:00+00:00,116.46257856161544
2025-03-13 13:00:00+00:00,116.46257856161544
2025-03-13 14:00:00+00:00,116.46257856161544
2025-03-13 15:00:00+00:00,116.46257856161544
2025-03-13 16:00:00+00:00,116.46257856161544
2025-03-13 17:00:00+00:00,116.46257856161544
2025-03-13 18:00:00+00:00,116.46257856161544
2025-03-13 19:00:00+00:00,116.46257856161544
2025-03-14 13:00:00+00:00,116.46257856161544
2025-03-14 14:00:00+00:00,116.46257856161544
2025-03-14 15:00:00+00:00,116.46257856161544
2025-03-14 16:00:00+00:00,116.46257856161544
2025-03-14 17:00:00+00:00,116.46257856161544
2025-03-14 18:00:00+00:00,116.46257856161544
2025-03-14 19:00:00+00:00,116.46257856161544
2025-03-17 13:00:00+00:00,116.46257856161544
2025-03-17 14:00:00+00:00,116.46257856161544
2025-03-17 15:00:00+00:00,116.46257856161544
2025-03-17 16:00:00+00:00,116.46257856161544
2025-03-17 17:00:00+00:00,116.46257856161544
2025-03-17 18:00:00+00:00,116.46257856161544
2025-03-17 19:00:00+00:00,116.46257856161544
2025-03-18 13:00:00+00:00,116.46257856161544
2025-03-18 14:00:00+00:00,116.46257856161544
2025-03-18 15:00:00+00:00,116.46257856161544
2025-03-18 16:00:00+00:00,116.46257856161544
2025-03-18 17:00:00+00:00,116.46257856161544
2025-03-18 18:00:00+00:00,116.46257856161544
2025-03-18 19:00:00+00:00,116.46257856161544
2025-03-19 13:00:00+00:00,116.46257856161544
2025-03-19 14:00:00+00:00,116.46257856161544
2025-03-19 15:00:00+00:00,116.46257856161544
2025-03-19 16:00:00+00:00,116.46257856161544
2025-03-19 17:00:00+00:00,116.46257856161544
2025-03-19 18:00:00+00:00,116.46257856161544
2025-03-19 19:00:00+00:00,116.46257856161544
2025-03-20 13:00:00+00:00,116.46257856161544
2025-03-20 14:00:00+00:00,116.46257856161544
2025-03-20 15:00:00+00:00,116.46257856161544
2025-03-20 16:00:00+00:00,116.46257856161544
2025-03-20 17:00:00+00:00,116.46257856161544
2025-03-20 18:00:00+00:00,116.46257856161544
2025-03-20 19:00:00+00:00,116.46257856161544
2025-03-21 13:00:00+00:00,116.46257856161544
2025-03-21 14:00:00+00:00,116.46257856161544
2025-03-21 15:00:00+00:00,116.46257856161544
2025-03-21 16:00:00+00:00,116.46257856161544
2025-03-21 17:00:00+00:00,116.46257856161544
2025-03-21 18:00:00+00:00,116.46257856161544
2025-03-21 19:00:00+00:00,116.46257856161544
2025-03-24 13:00:00+00:00,116.46257856161544
2025-03-24 14:00:00+00:00,116.46257856161544
2025-03-24 15:00:00+00:00,116.46257856161544
2025-03-24 16:00:00+00:00,116.46257856161544
2025-03-24 17:00:00+00:00,116.46257856161544
2025-03-24 18:00:00+00:00,116.46257856161544
2025-03-24 19:00:00+00:00,116.46257856161544
2025-03-25 13:00:00+00:00,116.46257856161544
2025-03-25 14:00:00+00:00,116.46257856161544
2025-03-25 15:00:00+00:00,116.46257856161544
2025-03-25 16:00:00+00:00,116.46257856161544
2025-03-25 17:00:00+00:00,116.46257856161544
2025-03-25 18:00:00+00:00,116.46257856161544
2025-03-25 19:00:00+00:00,116.46257856161544
2025-03-26 13:00:00+00:00,116.46257856161544
2025-03-26 14:00:00+00:00,116.46257856161544
2025-03-26 15:00:00+00:00,116.46257856161544
2025-03-26 16:00:00+00:00,116.46257856161544
2025-03-26 17:00:00+00:00,116.46257856161544
2025-03-26 18:00:00+00:00,116.46257856161544
2025-03-26 19:00:00+00:00,116.46257856161544
2025-03-27 13:00:00+00:00,116.46257856161544
2025-03-27 14:00:00+00:00,116.46257856161544
2025-03-27 15:00:00+00:00,116.46257856161544
2025-03-27 16:00:00+00:00,116.46257856161544
2025-03-27 17:00:00+00:00,116.46257856161544
2025-03-27 18:00:00+00:00,116.46257856161544
2025-03-27 19:00:00+00:00,116.46257856161544
2025-03-28 13:00:00+00:00,116.46257856161544
2025-03-28 14:00:00+00:00,116.46257856161544
2025-03-28 15:00:00+00:00,116.46257856161544
2025-03-28 16:00:00+00:00,116.46257856161544
2025-03-28 17:00:00+00:00,116.46257856161544
2025-03-28 18:00:00+00:00,116.46257856161544
2025-03-28 19:00:00+00:00,116.46257856161544
2025-03-31 13:00:00+00:00,116.46257856161544
2025-03-31 14:00:00+00:00,116.46257856161544
2025-03-31 15:00:00+00:00,116.46257856161544
2025-03-31 16:00:00+00:00,116.46257856161544
2025-03-31 17:00:00+00:00,116.46257856161544
2025-03-31 18:00:00+00:00,116.46257856161544
2025-03-31 19:00:00+00:00,116.46257856161544
2025-04-01 13:00:00+00:00,116.46257856161544
2025-04-01 14:00:00+00:00,116.46257856161544
2025-04-01 15:00:00+00:00,116.46257856161544
2025-04-01 16:00:00+00:00,116.46257856161544
2025-04-01 17:00:00+00:00,116.46257856161544
2025-04-01 18:00:00+00:00,116.46257856161544
2025-04-01 19:00:00+00:00,116.46257856161544
2025-04-02 13:00:00+00:00,116.46257856161544
2025-04-02 14:00:00+00:00,116.46257856161544
2025-04-02 15:00:00+00:00,116.46257856161544
2025-04-02 16:00:00+00:00,116.46257856161544
2025-04-02 17:00:00+00:00,116.46257856161544
2025-04-02 18:00:00+00:00,116.46257856161544
2025-04-02 19:00:00+00:00,116.46257856161544
2025-04-03 13:00:00+00:00,116.46257856161544
2025-04-03 14:00:00+00:00,116.46257856161544
2025-04-03 15:00:00+00:00,116.46257856161544
2025-04-03 16:00:00+00:00,116.46257856161544
2025-04-03 17:00:00+00:00,116.46257856161544
2025-04-03 18:00:00+00:00,116.46257856161544
2025-04-03 19:00:00+00:00,116.46257856161544
2025-04-04 13:00:00+00:00,116.46257856161544
2025-04-04 14:00:00+00:00,116.46257856161544
2025-04-04 15:00:00+00:00,116.46257856161544
2025-04-04 16:00:00+00:00,116.46257856161544
2025-04-04 17:00:00+00:00,116.46257856161544
2025-04-04 18:00:00+00:00,116.46257856161544
2025-04-04 19:00:00+00:00,116.46257856161544
2025-04-07 13:00:00+00:00,116.46257856161544
2025-04-07 14:00:00+00:00,116.46257856161544
2025-04-07 15:00:00+00:00,116.46257856161544
2025-04-07 16:00:00+00:00,116.46257856161544
2025-04-07 17:00:00+00:00,116.46257856161544
2025-04-07 18:00:00+00:00,116.46257856161544
2025-04-07 19:00:00+00:00,116.46257856161544
2025-04-08 13:00:00+00:00,116.46257856161544
2025-04-08 14:00:00+00:00,116.46257856161544
2025-04-08 15:00:00+00:00,116.46257856161544
2025-04-08 16:00:00+00:00,116.46257856161544
2025-04-08 17:00:00+00:00,116.46257856161544
2025-04-08 18:00:00+00:00,116.46257856161544
2025-04-08 19:00:00+00:00,116.46257856161544
2025-04-09 13:00:00+00:00,116.46257856161544
2025-04-09 14:00:00+00:00,116.46257856161544
2025-04-09 15:00:00+00:00,116.46257856161544
2025-04-09 16:00:00+00:00,116.46257856161544
2025-04-09 17:00:00+00:00,116.46257856161544
2025-04-09 18:00:00+00:00,116.46257856161544
2025-04-09 19:00:00+00:00,116.46257856161544
2025-04-10 13:00:00+00:00,116.46257856161544
2025-04-10 14:00:00+00:00,116.46257856161544
2025-04-10 15:00:00+00:00,116.46257856161544
2025-04-10 16:00:00+00:00,116.46257856161544
2025-04-10 17:00:00+00:00,116.46257856161544
2025-04-10 18:00:00+00:00,116.46257856161544
2025-04-10 19:00:00+00:00,116.46257856161544
2025-04-11 13:00:00+00:00,116.46257856161544
2025-04-11 14:00:00+00:00,116.46257856161544
2025-04-11 15:00:00+00:00,116.46257856161544
2025-04-11 16:00:00+00:00,116.46257856161544
2025-04-11 17:00:00+00:00,116.46257856161544
2025-04-11 18:00:00+00:00,116.46257856161544
2025-04-11 19:00:00+00:00,116.46257856161544
2025-04-14 13:00:00+00:00,116.46257856161544
2025-04-14 14:00:00+00:00,116.46257856161544
2025-04-14 15:00:00+00:00,116.46257856161544
2025-04-14 16:00:00+00:00,116.46257856161544
2025-04-14 17:00:00+00:00,116.46257856161544
2025-04-14 18:00:00+00:00,116.46257856161544
2025-04-14 19:00:00+00:00,116.46257856161544
2025-04-15 13:00:00+00:00,116.46257856161544
2025-04-15 14:00:00+00:00,116.46257856161544
2025-04-15 15:00:00+00:00,116.46257856161544
2025-04-15 16:00:00+00:00,116.46257856161544
2025-04-15 17:00:00+00:00,116.46257856161544
2025-04-15 18:00:00+00:00,116.46257856161544
2025-04-15 19:00:00+00:00,116.46257856161544
2025-04-16 13:00:00+00:00,116.46257856161544
2025-04-16 14:00:00+00:00,116.46257856161544
2025-04-16 15:00:00+00:00,116.46257856161544
2025-04-16 16:00:00+00:00,116.46257856161544
2025-04-16 17:00:00+00:00,116.46257856161544
2025-04-16 18:00:00+00:00,116.46257856161544
2025-04-16 19:00:00+00:00,116.46257856161544
2025-04-17 13:00:00+00:00,116.46257856161544
2025-04-17 14:00:00+00:00,116.46257856161544
2025-04-17 15:00:00+00:00,116.46257856161544
2025-04-17 16:00:00+00:00,116.46257856161544
2025-04-17 17:00:00+00:00,116.46257856161544
2025-04-17 18:00:00+00:00,116.46257856161544
2025-04-17 19:00:00+00:00,116.46257856161544
2025-04-21 13:00:00+00:00,116.46257856161544
2025-04-21 14:00:00+00:00,116.46257856161544
2025-04-21 15:00:00+00:00,116.46257856161544
2025-04-21 16:00:00+00:00,116.46257856161544
2025-04-21 17:00:00+00:00,116.46257856161544
2025-04-21 18:00:00+00:00,116.46257856161544
2025-04-21 19:00:00+00:00,116.46257856161544
2025-04-22 13:00:00+00:00,116.46257856161544
2025-04-22 14:00:00+00:00,116.46257856161544
2025-04-22 15:00:00+00:00,116.46257856161544
2025-04-22 16:00:00+00:00,116.46257856161544
2025-04-22 17:00:00+00:00,116.46257856161544
2025-04-22 18:00:00+00:00,116.46257856161544
2025-04-22 19:00:00+00:00,116.46257856161544
2025-04-23 13:00:00+00:00,116.46257856161544
2025-04-23 14:00:00+00:00,116.46257856161544
2025-04-23 15:00:00+00:00,116.46257856161544
2025-04-23 16:00:00+00:00,116.46257856161544
2025-04-23 17:00:00+00:00,116.46257856161544
2025-04-23 18:00:00+00:00,116.46257856161544
2025-04-23 19:00:00+00:00,116.46257856161544
2025-04-24 13:00:00+00:00,116.46257856161544
2025-04-24 14:00:00+00:00,116.46257856161544
2025-04-24 15:00:00+00:00,116.46257856161544
2025-04-24 16:00:00+00:00,116.46257856161544
2025-04-24 17:00:00+00:00,116.46257856161544
2025-04-24 18:00:00+00:00,116.46257856161544
2025-04-24 19:00:00+00:00,116.46257856161544
2025-04-25 13:00:00+00:00,116.46257856161544
2025-04-25 14:00:00+00:00,116.46257856161544
2025-04-25 15:00:00+00:00,116.46257856161544
2025-04-25 16:00:00+00:00,116.46257856161544
2025-04-25 17:00:00+00:00,116.46257856161544
2025-04-25 18:00:00+00:00,116.46257856161544
2025-04-25 19:00:00+00:00,116.46257856161544
2025-04-28 13:00:00+00:00,116.46257856161544
2025-04-28 14:00:00+00:00,116.46257856161544
2025-04-28 15:00:00+00:00,116.46257856161544
2025-04-28 16:00:00+00:00,116.46257856161544
2025-04-28 17:00:00+00:00,116.46257856161544
2025-04-28 18:00:00+00:00,116.46257856161544
2025-04-28 19:00:00+00:00,116.46257856161544
2025-04-29 13:00:00+00:00,116.46257856161544
2025-04-29 14:00:00+00:00,116.46257856161544
2025-04-29 15:00:00+00:00,116.46257856161544
2025-04-29 16:00:00+00:00,116.46257856161544
2025-04-29 17:00:00+00:00,116.46257856161544
2025-04-29 18:00:00+00:00,116.46257856161544
2025-04-29 19:00:00+00:00,116.46257856161544
2025-04-30 13:00:00+00:00,116.46257856161544
2025-04-30 14:00:00+00:00,116.46257856161544
2025-04-30 15:00:00+00:00,116.46257856161544
2025-04-30 16:00:00+00:00,116.46257856161544
2025-04-30 17:00:00+00:00,116.46257856161544
2025-04-30 18:00:00+00:00,116.46257856161544
2025-04-30 19:00:00+00:00,116.46257856161544
2025-05-01 13:00:00+00:00,116.46257856161544
2025-05-01 14:00:00+00:00,116.46257856161544
2025-05-01 15:00:00+00:00,116.46257856161544
2025-05-01 16:00:00+00:00,116.46257856161544
2025-05-01 17:00:00+00:00,116.46257856161544
2025-05-01 18:00:00+00:00,116.46257856161544
2025-05-01 19:00:00+00:00,116.46257856161544
2025-05-02 13:00:00+00:00,116.46257856161544
2025-05-02 14:00:00+00:00,116.46257856161544
2025-05-02 15:00:00+00:00,116.46257856161544
2025-05-02 16:00:00+00:00,116.46257856161544
2025-05-02 17:00:00+00:00,116.46257856161544
2025-05-02 18:00:00+00:00,116.46257856161544
2025-05-02 19:00:00+00:00,116.46257856161544
2025-05-05 13:00:00+00:00,116.46257856161544
2025-05-05 14:00:00+00:00,116.46257856161544
2025-05-05 15:00:00+00:00,116.46257856161544
2025-05-05 16:00:00+00:00,116.46257856161544
2025-05-05 17:00:00+00:00,116.46257856161544
2025-05-05 18:00:00+00:00,116.46257856161544
2025-05-05 19:00:00+00:00,116.46257856161544
2025-05-06 13:00:00+00:00,116.46257856161544
2025-05-06 14:00:00+00:00,116.46257856161544
2025-05-06 15:00:00+00:00,116.46257856161544
2025-05-06 16:00:00+00:00,116.46257856161544
2025-05-06 17:00:00+00:00,116.46257856161544
2025-05-06 18:00:00+00:00,116.46257856161544
2025-05-06 19:00:00+00:00,116.46257856161544
2025-05-07 13:00:00+00:00,116.46257856161544
2025-05-07 14:00:00+00:00,116.46257856161544
2025-05-07 15:00:00+00:00,116.46257856161544
2025-05-07 16:00:00+00:00,116.46257856161544
2025-05-07 17:00:00+00:00,116.46257856161544
2025-05-07 18:00:00+00:00,116.46257856161544
2025-05-07 19:00:00+00:00,116.46257856161544
2025-05-08 13:00:00+00:00,116.46257856161544
2025-05-08 14:00:00+00:00,116.46257856161544
2025-05-08 15:00:00+00:00,116.46257856161544
2025-05-08 16:00:00+00:00,116.46257856161544
2025-05-08 17:00:00+00:00,116.46257856161544
2025-05-08 18:00:00+00:00,116.46257856161544
2025-05-08 19:00:00+00:00,116.46257856161544
2025-05-09 13:00:00+00:00,116.46257856161544
2025-05-09 14:00:00+00:00,116.46257856161544
2025-05-09 15:00:00+00:00,116.46257856161544
2025-05-09 16:00:00+00:00,116.46257856161544
2025-05-09 17:00:00+00:00,116.46257856161544
2025-05-09 18:00:00+00:00,116.46257856161544
2025-05-09 19:00:00+00:00,116.46257856161544
2025-05-12 13:00:00+00:00,116.46257856161544
2025-05-12 14:00:00+00:00,116.46257856161544
2025-05-12 15:00:00+00:00,116.46257856161544
2025-05-12 16:00:00+00:00,116.46257856161544
2025-05-12 17:00:00+00:00,116.46257856161544
2025-05-12 18:00:00+00:00,116.46257856161544
2025-05-12 19:00:00+00:00,116.46257856161544
2025-05-13 13:00:00+00:00,116.46257856161544
2025-05-13 14:00:00+00:00,116.46257856161544
2025-05-13 15:00:00+00:00,116.46257856161544
2025-05-13 16:00:00+00:00,116.46257856161544
2025-05-13 17:00:00+00:00,116.46257856161544
2025-05-13 18:00:00+00:00,116.46257856161544
2025-05-13 19:00:00+00:00,116.46257856161544
2025-05-14 13:00:00+00:00,116.46257856161544
2025-05-14 14:00:00+00:00,116.46257856161544
2025-05-14 15:00:00+00:00,116.46257856161544
2025-05-14 16:00:00+00:00,116.46257856161544
2025-05-14 17:00:00+00:00,116.46257856161544
2025-05-14 18:00:00+00:00,116.46257856161544
2025-05-14 19:00:00+00:00,116.46257856161544
2025-05-15 13:00:00+00:00,116.46257856161544
2025-05-15 14:00:00+00:00,116.46257856161544
2025-05-15 15:00:00+00:00,116.46257856161544
2025-05-15 16:00:00+00:00,116.46257856161544
2025-05-15 17:00:00+00:00,116.46257856161544
2025-05-15 18:00:00+00:00,116.46257856161544
2025-05-15 19:00:00+00:00,116.46257856161544
2025-05-16 13:00:00+00:00,116.46257856161544
2025-05-16 14:00:00+00:00,116.46257856161544
2025-05-16 15:00:00+00:00,116.46257856161544
2025-05-16 16:00:00+00:00,116.46257856161544
2025-05-16 17:00:00+00:00,116.46257856161544
2025-05-16 18:00:00+00:00,116.46257856161544
2025-05-16 19:00:00+00:00,116.46257856161544
2025-05-19 13:00:00+00:00,116.46257856161544
2025-05-19 14:00:00+00:00,116.46257856161544
2025-05-19 15:00:00+00:00,116.46257856161544
2025-05-19 16:00:00+00:00,116.46257856161544
2025-05-19 17:00:00+00:00,116.46257856161544
2025-05-19 18:00:00+00:00,116.46257856161544
2025-05-19 19:00:00+00:00,116.46257856161544
2025-05-20 13:00:00+00:00,116.46257856161544
2025-05-20 14:00:00+00:00,116.46257856161544
2025-05-20 15:00:00+00:00,116.46257856161544
2025-05-20 16:00:00+00:00,116.46257856161544
2025-05-20 17:00:00+00:00,116.46257856161544
2025-05-20 18:00:00+00:00,116.46257856161544
2025-05-20 19:00:00+00:00,116.46257856161544
2025-05-21 13:00:00+00:00,116.46257856161544
2025-05-21 14:00:00+00:00,116.46257856161544
2025-05-21 15:00:00+00:00,116.46257856161544
2025-05-21 16:00:00+00:00,116.46257856161544
2025-05-21 17:00:00+00:00,116.46257856161544
2025-05-21 18:00:00+00:00,116.46257856161544
2025-05-21 19:00:00+00:00,116.46257856161544
2025-05-22 13:00:00+00:00,116.46257856161544
2025-05-22 14:00:00+00:00,116.46257856161544
2025-05-22 15:00:00+00:00,116.46257856161544
2025-05-22 16:00:00+00:00,116.46257856161544
2025-05-22 17:00:00+00:00,116.46257856161544
2025-05-22 18:00:00+00:00,116.46257856161544
2025-05-22 19:00:00+00:00,116.46257856161544
2025-05-23 13:00:00+00:00,116.46257856161544
2025-05-23 14:00:00+00:00,116.46257856161544
2025-05-23 15:00:00+00:00,116.46257856161544
2025-05-23 16:00:00+00:00,116.46257856161544
2025-05-23 17:00:00+00:00,116.46257856161544
2025-05-23 18:00:00+00:00,116.46257856161544
2025-05-23 19:00:00+00:00,116.46257856161544
2025-05-27 13:00:00+00:00,116.46257856161544
2025-05-27 14:00:00+00:00,116.46257856161544
2025-05-27 15:00:00+00:00,116.46257856161544
2025-05-27 16:00:00+00:00,116.46257856161544
2025-05-27 17:00:00+00:00,116.46257856161544
2025-05-27 18:00:00+00:00,116.46257856161544
2025-05-27 19:00:00+00:00,116.46257856161544
2025-05-28 13:00:00+00:00,116.46257856161544
2025-05-28 14:00:00+00:00,116.46257856161544
2025-05-28 15:00:00+00:00,116.46257856161544
2025-05-28 16:00:00+00:00,116.46257856161544
2025-05-28 17:00:00+00:00,116.46257856161544
2025-05-28 18:00:00+00:00,116.46257856161544
2025-05-28 19:00:00+00:00,116.46257856161544
2025-05-29 13:00:00+00:00,116.46257856161544
2025-05-29 14:00:00+00:00,116.46257856161544
2025-05-29 15:00:00+00:00,116.46257856161544
2025-05-29 16:00:00+00:00,116.46257856161544
2025-05-29 17:00:00+00:00,116.46257856161544
2025-05-29 18:00:00+00:00,116.46257856161544
2025-05-29 19:00:00+00:00,116.46257856161544
2025-05-30 13:00:00+00:00,116.46257856161544
2025-05-30 14:00:00+00:00,116.46257856161544
2025-05-30 15:00:00+00:00,116.46257856161544
2025-05-30 16:00:00+00:00,116.46257856161544
2025-05-30 17:00:00+00:00,116.46257856161544
2025-05-30 18:00:00+00:00,116.46257856161544
2025-05-30 19:00:00+00:00,116.46257856161544
2025-06-02 13:00:00+00:00,116.46257856161544
2025-06-02 14:00:00+00:00,116.46257856161544
2025-06-02 15:00:00+00:00,116.46257856161544
2025-06-02 16:00:00+00:00,116.46257856161544
2025-06-02 17:00:00+00:00,116.46257856161544
2025-06-02 18:00:00+00:00,116.46257856161544
2025-06-02 19:00:00+00:00,116.46257856161544
2025-06-03 13:00:00+00:00,116.46257856161544
2025-06-03 14:00:00+00:00,116.46257856161544
2025-06-03 15:00:00+00:00,116.46257856161544
2025-06-03 16:00:00+00:00,116.46257856161544
2025-06-03 17:00:00+00:00,116.46257856161544
2025-06-03 18:00:00+00:00,116.46257856161544
2025-06-03 19:00:00+00:00,116.46257856161544
2025-06-04 13:00:00+00:00,116.46257856161544
2025-06-04 14:00:00+00:00,116.46257856161544
2025-06-04 15:00:00+00:00,116.46257856161544
2025-06-04 16:00:00+00:00,116.46257856161544
2025-06-04 17:00:00+00:00,116.46257856161544
2025-06-04 18:00:00+00:00,116.46257856161544
2025-06-04 19:00:00+00:00,116.46257856161544
2025-06-05 13:00:00+00:00,116.46257856161544
2025-06-05 14:00:00+00:00,116.46257856161544
2025-06-05 15:00:00+00:00,116.46257856161544
2025-06-05 16:00:00+00:00,116.46257856161544
2025-06-05 17:00:00+00:00,116.46257856161544
2025-06-05 18:00:00+00:00,116.46257856161544
2025-06-05 19:00:00+00:00,116.46257856161544
2025-06-06 13:00:00+00:00,116.46257856161544
2025-06-06 14:00:00+00:00,116.46257856161544
2025-06-06 15:00:00+00:00,116.46257856161544
2025-06-06 16:00:00+00:00,116.46257856161544
2025-06-06 17:00:00+00:00,116.46257856161544
2025-06-06 18:00:00+00:00,116.46257856161544
2025-06-06 19:00:00+00:00,116.46257856161544
2025-06-09 13:00:00+00:00,116.46257856161544
2025-06-09 14:00:00+00:00,116.46257856161544
2025-06-09 15:00:00+00:00,116.46257856161544
2025-06-09 16:00:00+00:00,116.46257856161544
2025-06-09 17:00:00+00:00,116.46257856161544
2025-06-09 18:00:00+00:00,116.46257856161544
2025-06-09 19:00:00+00:00,116.46257856161544
2025-06-10 13:00:00+00:00,116.46257856161544
2025-06-10 14:00:00+00:00,116.46257856161544
2025-06-10 15:00:00+00:00,116.46257856161544
2025-06-10 16:00:00+00:00,116.46257856161544
2025-06-10 17:00:00+00:00,116.46257856161544
2025-06-10 18:00:00+00:00,116.46257856161544
2025-06-10 19:00:00+00:00,116.46257856161544
2025-06-11 13:00:00+00:00,116.46257856161544
2025-06-11 14:00:00+00:00,116.46257856161544
2025-06-11 15:00:00+00:00,116.46257856161544
2025-06-11 16:00:00+00:00,116.46257856161544
2025-06-11 17:00:00+00:00,116.46257856161544
2025-06-11 18:00:00+00:00,116.46257856161544
2025-06-11 19:00:00+00:00,116.46257856161544
2025-06-12 13:00:00+00:00,116.46257856161544
2025-06-12 14:00:00+00:00,116.46257856161544
2025-06-12 15:00:00+00:00,116.46257856161544
2025-06-12 16:00:00+00:00,116.46257856161544
2025-06-12 17:00:00+00:00,116.46257856161544
2025-06-12 18:00:00+00:00,116.46257856161544
2025-06-12 19:00:00+00:00,116.46257856161544
2025-06-13 13:00:00+00:00,116.46257856161544
2025-06-13 14:00:00+00:00,116.46257856161544
2025-06-13 15:00:00+00:00,116.46257856161544
2025-06-13 16:00:00+00:00,116.46257856161544
2025-06-13 17:00:00+00:00,116.46257856161544
2025-06-13 18:00:00+00:00,116.46257856161544
2025-06-13 19:00:00+00:00,116.46257856161544
2025-06-16 13:00:00+00:00,116.46257856161544
2025-06-16 14:00:00+00:00,116.46257856161544
2025-06-16 15:00:00+00:00,116.46257856161544
2025-06-16 16:00:00+00:00,116.46257856161544
2025-06-16 17:00:00+00:00,116.46257856161544
2025-06-16 18:00:00+00:00,116.46257856161544
2025-06-16 19:00:00+00:00,116.46257856161544
2025-06-17 13:00:00+00:00,116.46257856161544
2025-06-17 14:00:00+00:00,116.46257856161544
2025-06-17 15:00:00+00:00,116.46257856161544
2025-06-17 16:00:00+00:00,116.46257856161544
2025-06-17 17:00:00+00:00,116.46257856161544
2025-06-17 18:00:00+00:00,116.46257856161544
2025-06-17 19:00:00+00:00,116.46257856161544
2025-06-18 13:00:00+00:00,116.46257856161544
2025-06-18 14:00:00+00:00,116.46257856161544
2025-06-18 15:00:00+00:00,116.46257856161544
2025-06-18 16:00:00+00:00,116.46257856161544
2025-06-18 17:00:00+00:00,116.46257856161544
2025-06-18 18:00:00+00:00,116.46257856161544
2025-06-18 19:00:00+00:00,116.46257856161544
2025-06-20 13:00:00+00:00,116.46257856161544
2025-06-20 14:00:00+00:00,116.46257856161544
2025-06-20 15:00:00+00:00,116.46257856161544
2025-06-20 16:00:00+00:00,116.46257856161544
2025-06-20 17:00:00+00:00,116.46257856161544
2025-06-20 18:00:00+00:00,116.46257856161544
2025-06-20 19:00:00+00:00,116.46257856161544
2025-06-23 13:00:00+00:00,116.46257856161544
2025-06-23 14:00:00+00:00,116.46257856161544
2025-06-23 15:00:00+00:00,116.46257856161544
2025-06-23 16:00:00+00:00,116.46257856161544
2025-06-23 17:00:00+00:00,116.46257856161544
2025-06-23 18:00:00+00:00,116.46257856161544
2025-06-23 19:00:00+00:00,116.46257856161544
2025-06-24 13:00:00+00:00,116.46257856161544
2025-06-24 14:00:00+00:00,116.46257856161544
2025-06-24 15:00:00+00:00,116.46257856161544
2025-06-24 16:00:00+00:00,116.46257856161544
2025-06-24 17:00:00+00:00,116.46257856161544
2025-06-24 18:00:00+00:00,116.46257856161544
2025-06-24 19:00:00+00:00,116.46257856161544
2025-06-25 13:00:00+00:00,116.46257856161544
2025-06-25 14:00:00+00:00,116.46257856161544
2025-06-25 15:00:00+00:00,116.46257856161544
2025-06-25 16:00:00+00:00,116.46257856161544
2025-06-25 17:00:00+00:00,116.46257856161544
2025-06-25 18:00:00+00:00,116.46257856161544
2025-06-25 19:00:00+00:00,116.46257856161544
2025-06-26 13:00:00+00:00,116.46257856161544
2025-06-26 14:00:00+00:00,116.46257856161544
2025-06-26 15:00:00+00:00,116.46257856161544
2025-06-26 16:00:00+00:00,116.46257856161544
2025-06-26 17:00:00+00:00,116.46257856161544
2025-06-26 18:00:00+00:00,116.46257856161544
2025-06-26 19:00:00+00:00,116.46257856161544
2025-06-27 13:00:00+00:00,116.46257856161544
2025-06-27 14:00:00+00:00,116.46257856161544
2025-06-27 15:00:00+00:00,116.46257856161544
2025-06-27 16:00:00+00:00,116.46257856161544
2025-06-27 17:00:00+00:00,116.46257856161544
2025-06-27 18:00:00+00:00,116.46257856161544
2025-06-27 19:00:00+00:00,116.46257856161544
2025-06-30 13:00:00+00:00,116.46257856161544
2025-06-30 14:00:00+00:00,116.46257856161544
2025-06-30 15:00:00+00:00,116.46257856161544
2025-06-30 16:00:00+00:00,116.46257856161544
2025-06-30 17:00:00+00:00,116.46257856161544
2025-06-30 18:00:00+00:00,116.46257856161544
2025-06-30 19:00:00+00:00,116.46257856161544
2025-07-01 13:00:00+00:00,116.46257856161544
2025-07-01 14:00:00+00:00,116.46257856161544
2025-07-01 15:00:00+00:00,116.46257856161544
2025-07-01 16:00:00+00:00,116.46257856161544
2025-07-01 17:00:00+00:00,116.46257856161544
2025-07-01 18:00:00+00:00,116.46257856161544
2025-07-01 19:00:00+00:00,116.46257856161544
2025-07-02 13:00:00+00:00,116.46257856161544
2025-07-02 14:00:00+00:00,116.46257856161544
2025-07-02 15:00:00+00:00,116.46257856161544
2025-07-02 16:00:00+00:00,116.46257856161544
2025-07-02 17:00:00+00:00,116.46257856161544
2025-07-02 18:00:00+00:00,116.46257856161544
2025-07-02 19:00:00+00:00,116.46257856161544
2025-07-03 13:00:00+00:00,116.46257856161544
2025-07-03 14:00:00+00:00,116.46257856161544
2025-07-03 15:00:00+00:00,116.46257856161544
2025-07-07 13:00:00+00:00,116.46257856161544
2025-07-07 14:00:00+00:00,116.46257856161544
2025-07-07 15:00:00+00:00,116.46257856161544
2025-07-07 16:00:00+00:00,116.46257856161544
2025-07-07 17:00:00+00:00,116.46257856161544
2025-07-07 18:00:00+00:00,116.46257856161544
2025-07-07 19:00:00+00:00,116.46257856161544
2025-07-08 13:00:00+00:00,116.46257856161544
2025-07-08 14:00:00+00:00,116.46257856161544
2025-07-08 15:00:00+00:00,116.46257856161544
2025-07-08 16:00:00+00:00,116.46257856161544
2025-07-08 17:00:00+00:00,116.46257856161544
2025-07-08 18:00:00+00:00,116.46257856161544
2025-07-08 19:00:00+00:00,116.46257856161544
2025-07-09 13:00:00+00:00,116.46257856161544
2025-07-09 14:00:00+00:00,116.46257856161544
2025-07-09 15:00:00+00:00,116.46257856161544
2025-07-09 16:00:00+00:00,116.46257856161544
2025-07-09 17:00:00+00:00,116.46257856161544
2025-07-09 18:00:00+00:00,116.46257856161544
2025-07-09 19:00:00+00:00,116.46257856161544
2025-07-10 13:00:00+00:00,116.46257856161544
2025-07-10 14:00:00+00:00,116.46257856161544
2025-07-10 15:00:00+00:00,116.46257856161544
2025-07-10 16:00:00+00:00,116.46257856161544
2025-07-10 17:00:00+00:00,116.46257856161544
2025-07-10 18:00:00+00:00,116.46257856161544
2025-07-10 19:00:00+00:00,116.46257856161544
2025-07-11 13:00:00+00:00,116.46257856161544
2025-07-11 14:00:00+00:00,116.46257856161544
2025-07-11 15:00:00+00:00,116.46257856161544
2025-07-11 16:00:00+00:00,116.46257856161544
2025-07-11 17:00:00+00:00,116.46257856161544
2025-07-11 18:00:00+00:00,116.46257856161544
2025-07-11 19:00:00+00:00,116.46257856161544
2025-07-14 13:00:00+00:00,116.46257856161544
2025-07-14 14:00:00+00:00,116.46257856161544
2025-07-14 15:00:00+00:00,116.46257856161544
2025-07-14 16:00:00+00:00,116.46257856161544
2025-07-14 17:00:00+00:00,116.46257856161544
2025-07-14 18:00:00+00:00,116.46257856161544
2025-07-14 19:00:00+00:00,116.46257856161544
2025-07-15 13:00:00+00:00,116.46257856161544
2025-07-15 14:00:00+00:00,116.46257856161544
2025-07-15 15:00:00+00:00,116.46257856161544
2025-07-15 16:00:00+00:00,116.46257856161544
2025-07-15 17:00:00+00:00,116.46257856161544
2025-07-15 18:00:00+00:00,116.46257856161544
2025-07-15 19:00:00+00:00,116.46257856161544
2025-07-16 13:00:00+00:00,116.46257856161544
2025-07-16 14:00:00+00:00,116.46257856161544
2025-07-16 15:00:00+00:00,116.46257856161544
2025-07-16 16:00:00+00:00,116.46257856161544
2025-07-16 17:00:00+00:00,116.46257856161544
2025-07-16 18:00:00+00:00,116.46257856161544
2025-07-16 19:00:00+00:00,116.46257856161544
2025-07-17 13:00:00+00:00,116.46257856161544
2025-07-17 14:00:00+00:00,116.46257856161544
2025-07-17 15:00:00+00:00,116.46257856161544
2025-07-17 16:00:00+00:00,116.46257856161544
2025-07-17 17:00:00+00:00,116.46257856161544
2025-07-17 18:00:00+00:00,116.46257856161544
2025-07-17 19:00:00+00:00,116.46257856161544
2025-07-18 13:00:00+00:00,116.46257856161544
2025-07-18 14:00:00+00:00,116.46257856161544
2025-07-18 15:00:00+00:00,116.46257856161544
2025-07-18 16:00:00+00:00,116.46257856161544
2025-07-18 17:00:00+00:00,116.46257856161544
2025-07-18 18:00:00+00:00,116.46257856161544
2025-07-18 19:00:00+00:00,116.46257856161544
2025-07-21 13:00:00+00:00,116.46257856161544
2025-07-21 14:00:00+00:00,116.46257856161544
2025-07-21 15:00:00+00:00,116.46257856161544
2025-07-21 16:00:00+00:00,116.46257856161544
2025-07-21 17:00:00+00:00,116.46257856161544
2025-07-21 18:00:00+00:00,116.46257856161544
2025-07-21 19:00:00+00:00,116.46257856161544
2025-07-22 13:00:00+00:00,116.46257856161544
2025-07-22 14:00:00+00:00,116.46257856161544
2025-07-22 15:00:00+00:00,116.46257856161544
2025-07-22 16:00:00+00:00,116.46257856161544
2025-07-22 17:00:00+00:00,116.46257856161544
2025-07-22 18:00:00+00:00,116.46257856161544
2025-07-22 19:00:00+00:00,116.46257856161544
2025-07-23 13:00:00+00:00,116.46257856161544
2025-07-23 14:00:00+00:00,116.46257856161544
2025-07-23 15:00:00+00:00,116.46257856161544
2025-07-23 16:00:00+00:00,116.46257856161544
2025-07-23 17:00:00+00:00,116.46257856161544
2025-07-23 18:00:00+00:00,116.46257856161544
2025-07-23 19:00:00+00:00,116.46257856161544
2025-07-24 13:00:00+00:00,116.46257856161544
2025-07-24 14:00:00+00:00,116.46257856161544
2025-07-24 15:00:00+00:00,116.46257856161544
2025-07-24 16:00:00+00:00,116.46257856161544
2025-07-24 17:00:00+00:00,116.46257856161544
2025-07-24 18:00:00+00:00,116.46257856161544
2025-07-24 19:00:00+00:00,116.46257856161544
2025-07-25 13:00:00+00:00,116.46257856161544
2025-07-25 14:00:00+00:00,116.46257856161544
2025-07-25 15:00:00+00:00,116.46257856161544
2025-07-25 16:00:00+00:00,116.46257856161544
2025-07-25 17:00:00+00:00,116.46257856161544
2025-07-25 18:00:00+00:00,116.46257856161544
2025-07-25 19:00:00+00:00,116.46257856161544
2025-07-28 13:00:00+00:00,116.46257856161544
2025-07-28 14:00:00+00:00,116.46257856161544
2025-07-28 15:00:00+00:00,116.46257856161544
2025-07-28 16:00:00+00:00,116.46257856161544
2025-07-28 17:00:00+00:00,116.46257856161544
2025-07-28 18:00:00+00:00,116.46257856161544
2025-07-28 19:00:00+00:00,116.46257856161544
2025-07-29 13:00:00+00:00,116.46257856161544
2025-07-29 14:00:00+00:00,116.46257856161544
2025-07-29 15:00:00+00:00,116.46257856161544
2025-07-29 16:00:00+00:00,116.46257856161544
2025-07-29 17:00:00+00:00,116.46257856161544
2025-07-29 18:00:00+00:00,116.46257856161544
2025-07-29 19:00:00+00:00,116.46257856161544
2025-07-30 13:00:00+00:00,116.46257856161544
2025-07-30 14:00:00+00:00,116.46257856161544
2025-07-30 15:00:00+00:00,116.46257856161544
2025-07-30 16:00:00+00:00,116.46257856161544
2025-07-30 17:00:00+00:00,116.46257856161544
2025-07-30 18:00:00+00:00,116.46257856161544
2025-07-30 19:00:00+00:00,116.46257856161544
2025-07-31 13:00:00+00:00,116.46257856161544
2025-07-31 14:00:00+00:00,116.46257856161544
2025-07-31 15:00:00+00:00,116.46257856161544
2025-07-31 16:00:00+00:00,116.46257856161544
2025-07-31 17:00:00+00:00,116.46257856161544
2025-07-31 18:00:00+00:00,116.46257856161544
2025-07-31 19:00:00+00:00,116.46257856161544
2025-08-01 13:00:00+00:00,116.46257856161544
2025-08-01 14:00:00+00:00,116.46257856161544
2025-08-01 15:00:00+00:00,116.46257856161544
2025-08-01 16:00:00+00:00,116.46257856161544
2025-08-01 17:00:00+00:00,116.46257856161544
2025-08-01 18:00:00+00:00,116.46257856161544
2025-08-01 19:00:00+00:00,116.46257856161544
2025-08-04 13:00:00+00:00,116.46257856161544
2025-08-04 14:00:00+00:00,116.46257856161544
2025-08-04 15:00:00+00:00,116.46257856161544
2025-08-04 16:00:00+00:00,116.46257856161544
2025-08-04 17:00:00+00:00,116.46257856161544
2025-08-04 18:00:00+00:00,116.46257856161544
2025-08-04 19:00:00+00:00,116.46257856161544
2025-08-05 13:00:00+00:00,116.46257856161544
2025-08-05 14:00:00+00:00,116.46257856161544
2025-08-05 15:00:00+00:00,116.46257856161544
2025-08-05 16:00:00+00:00,116.46257856161544
2025-08-05 17:00:00+00:00,116.46257856161544
2025-08-05 18:00:00+00:00,116.46257856161544
2025-08-05 19:00:00+00:00,116.46257856161544
2025-08-06 13:00:00+00:00,116.46257856161544
2025-08-06 14:00:00+00:00,116.46257856161544
2025-08-06 15:00:00+00:00,116.46257856161544
2025-08-06 16:00:00+00:00,116.46257856161544
2025-08-06 17:00:00+00:00,116.46257856161544
2025-08-06 18:00:00+00:00,116.46257856161544
2025-08-06 19:00:00+00:00,116.46257856161544
2025-08-07 13:00:00+00:00,116.46257856161544
2025-08-07 14:00:00+00:00,116.46257856161544
2025-08-07 15:00:00+00:00,116.46257856161544
2025-08-07 16:00:00+00:00,116.46257856161544
2025-08-07 17:00:00+00:00,116.46257856161544
2025-08-07 18:00:00+00:00,116.46257856161544
2025-08-07 19:00:00+00:00,116.46257856161544
2025-08-08 13:00:00+00:00,116.46257856161544
2025-08-08 14:00:00+00:00,116.46257856161544
2025-08-08 15:00:00+00:00,116.46257856161544
2025-08-08 16:00:00+00:00,116.46257856161544
2025-08-08 17:00:00+00:00,116.46257856161544
2025-08-08 18:00:00+00:00,116.46257856161544
2025-08-08 19:00:00+00:00,116.46257856161544
2025-08-11 13:00:00+00:00,116.46257856161544
2025-08-11 14:00:00+00:00,116.46257856161544
2025-08-11 15:00:00+00:00,116.46257856161544
2025-08-11 16:00:00+00:00,116.46257856161544
2025-08-11 17:00:00+00:00,116.46257856161544
2025-08-11 18:00:00+00:00,116.46257856161544
2025-08-11 19:00:00+00:00,116.46257856161544
2025-08-12 13:00:00+00:00,116.46257856161544
2025-08-12 14:00:00+00:00,116.46257856161544
2025-08-12 15:00:00+00:00,116.46257856161544
2025-08-12 16:00:00+00:00,116.46257856161544
2025-08-12 17:00:00+00:00,116.46257856161544
2025-08-12 18:00:00+00:00,116.46257856161544
2025-08-12 19:00:00+00:00,116.46257856161544
2025-08-13 13:00:00+00:00,116.46257856161544
2025-08-13 14:00:00+00:00,116.46257856161544
2025-08-13 15:00:00+00:00,116.46257856161544
2025-08-13 16:00:00+00:00,116.46257856161544
2025-08-13 17:00:00+00:00,116.46257856161544
2025-08-13 18:00:00+00:00,116.46257856161544
2025-08-13 19:00:00+00:00,116.46257856161544
2025-08-14 13:00:00+00:00,116.46257856161544
2025-08-14 14:00:00+00:00,116.46257856161544
2025-08-14 15:00:00+00:00,116.46257856161544
2025-08-14 16:00:00+00:00,116.46257856161544
2025-08-14 17:00:00+00:00,116.46257856161544
2025-08-14 18:00:00+00:00,116.46257856161544
2025-08-14 19:00:00+00:00,116.46257856161544
2025-08-15 13:00:00+00:00,116.46257856161544
2025-08-15 14:00:00+00:00,116.46257856161544
2025-08-15 15:00:00+00:00,116.46257856161544
2025-08-15 16:00:00+00:00,116.46257856161544
2025-08-15 17:00:00+00:00,116.46257856161544
2025-08-15 18:00:00+00:00,116.46257856161544
2025-08-15 19:00:00+00:00,116.46257856161544
2025-08-18 13:00:00+00:00,116.46257856161544
2025-08-18 14:00:00+00:00,116.46257856161544
2025-08-18 15:00:00+00:00,116.46257856161544
2025-08-18 16:00:00+00:00,116.46257856161544
2025-08-18 17:00:00+00:00,116.46257856161544
2025-08-18 18:00:00+00:00,116.46257856161544
2025-08-18 19:00:00+00:00,116.46257856161544
2025-08-19 13:00:00+00:00,116.46257856161544
2025-08-19 14:00:00+00:00,116.46257856161544
2025-08-19 15:00:00+00:00,116.46257856161544
2025-08-19 16:00:00+00:00,116.46257856161544
2025-08-19 17:00:00+00:00,116.46257856161544
2025-08-19 18:00:00+00:00,116.46257856161544
2025-08-19 19:00:00+00:00,116.46257856161544
2025-08-20 13:00:00+00:00,116.46257856161544
2025-08-20 14:00:00+00:00,116.46257856161544
2025-08-20 15:00:00+00:00,116.46257856161544
2025-08-20 16:00:00+00:00,116.46257856161544
2025-08-20 17:00:00+00:00,116.46257856161544
2025-08-20 18:00:00+00:00,116.46257856161544
2025-08-20 19:00:00+00:00,116.46257856161544
2025-08-21 13:00:00+00:00,116.46257856161544
2025-08-21 14:00:00+00:00,116.46257856161544
2025-08-21 15:00:00+00:00,116.46257856161544
2025-08-21 16:00:00+00:00,116.46257856161544
2025-08-21 17:00:00+00:00,116.46257856161544
2025-08-21 18:00:00+00:00,116.46257856161544
2025-08-21 19:00:00+00:00,116.46257856161544
2025-08-22 13:00:00+00:00,116.46257856161544
2025-08-22 14:00:00+00:00,116.46257856161544
2025-08-22 15:00:00+00:00,116.46257856161544
2025-08-22 16:00:00+00:00,116.46257856161544
2025-08-22 17:00:00+00:00,116.46257856161544
2025-08-22 18:00:00+00:00,116.46257856161544
2025-08-22 19:00:00+00:00,116.46257856161544
2025-08-25 13:00:00+00:00,116.46257856161544
2025-08-25 14:00:00+00:00,116.46257856161544
2025-08-25 15:00:00+00:00,116.46257856161544
2025-08-25 16:00:00+00:00,116.46257856161544
2025-08-25 17:00:00+00:00,116.46257856161544
2025-08-25 18:00:00+00:00,116.46257856161544
2025-08-25 19:00:00+00:00,116.46257856161544
2025-08-26 13:00:00+00:00,116.46257856161544
2025-08-26 14:00:00+00:00,116.46257856161544
2025-08-26 15:00:00+00:00,116.46257856161544
2025-08-26 16:00:00+00:00,116.46257856161544
2025-08-26 17:00:00+00:00,116.46257856161544
2025-08-26 18:00:00+00:00,116.46257856161544
2025-08-26 19:00:00+00:00,116.46257856161544
2025-08-27 13:00:00+00:00,116.46257856161544
2025-08-27 14:00:00+00:00,116.46257856161544
2025-08-27 15:00:00+00:00,116.46257856161544
2025-08-27 16:00:00+00:00,116.46257856161544
2025-08-27 17:00:00+00:00,116.46257856161544
2025-08-27 18:00:00+00:00,116.46257856161544
2025-08-27 19:00:00+00:00,116.46257856161544
2025-08-28 13:00:00+00:00,116.46257856161544
2025-08-28 14:00:00+00:00,116.46257856161544
2025-08-28 15:00:00+00:00,116.46257856161544
2025-08-28 16:00:00+00:00,116.46257856161544
2025-08-28 17:00:00+00:00,116.46257856161544
2025-08-28 18:00:00+00:00,116.46257856161544
2025-08-28 19:00:00+00:00,116.46257856161544
2025-08-29 13:00:00+00:00,116.46257856161544
2025-08-29 14:00:00+00:00,116.46257856161544
2025-08-29 15:00:00+00:00,116.46257856161544
2025-08-29 16:00:00+00:00,116.46257856161544
2025-08-29 17:00:00+00:00,116.46257856161544
2025-08-29 18:00:00+00:00,116.46257856161544
2025-08-29 19:00:00+00:00,116.46257856161544
2025-09-02 13:00:00+00:00,116.46257856161544
2025-09-02 14:00:00+00:00,116.46257856161544
2025-09-02 15:00:00+00:00,116.46257856161544
2025-09-02 16:00:00+00:00,116.46257856161544
2025-09-02 17:00:00+00:00,116.46257856161544
2025-09-02 18:00:00+00:00,116.46257856161544
2025-09-02 19:00:00+00:00,116.46257856161544
2025-09-03 13:00:00+00:00,116.46257856161544
2025-09-03 14:00:00+00:00,116.46257856161544
2025-09-03 15:00:00+00:00,116.46257856161544
2025-09-03 16:00:00+00:00,116.46257856161544
2025-09-03 17:00:00+00:00,116.46257856161544
2025-09-03 18:00:00+00:00,116.46257856161544
2025-09-03 19:00:00+00:00,116.46257856161544
2025-09-04 13:00:00+00:00,116.46257856161544
2025-09-04 14:00:00+00:00,116.46257856161544
2025-09-04 15:00:00+00:00,116.46257856161544
2025-09-04 16:00:00+00:00,116.46257856161544
2025-09-04 17:00:00+00:00,116.46257856161544
2025-09-04 18:00:00+00:00,116.46257856161544
2025-09-04 19:00:00+00:00,116.46257856161544
2025-09-05 13:00:00+00:00,116.46257856161544
2025-09-05 14:00:00+00:00,116.46257856161544
2025-09-05 15:00:00+00:00,116.46257856161544
2025-09-05 16:00:00+00:00,116.46257856161544
2025-09-05 17:00:00+00:00,116.46257856161544
2025-09-05 18:00:00+00:00,116.46257856161544
2025-09-05 19:00:00+00:00,116.46257856161544
2025-09-08 13:00:00+00:00,116.46257856161544
2025-09-08 14:00:00+00:00,116.46257856161544
2025-09-08 15:00:00+00:00,116.46257856161544
2025-09-08 16:00:00+00:00,116.46257856161544
2025-09-08 17:00:00+00:00,116.46257856161544
2025-09-08 18:00:00+00:00,116.46257856161544
2025-09-08 19:00:00+00:00,116.46257856161544
2025-09-09 13:00:00+00:00,116.46257856161544
2025-09-09 14:00:00+00:00,116.46257856161544
2025-09-09 15:00:00+00:00,116.46257856161544
2025-09-09 16:00:00+00:00,116.46257856161544
2025-09-09 17:00:00+00:00,116.46257856161544
2025-09-09 18:00:00+00:00,116.46257856161544
2025-09-09 19:00:00+00:00,116.46257856161544
2025-09-10 13:00:00+00:00,116.46257856161544
2025-09-10 14:00:00+00:00,116.46257856161544
2025-09-10 15:00:00+00:00,116.46257856161544
2025-09-10 16:00:00+00:00,116.46257856161544
2025-09-10 17:00:00+00:00,116.46257856161544
2025-09-10 18:00:00+00:00,116.46257856161544
2025-09-10 19:00:00+00:00,116.46257856161544
2025-09-11 13:00:00+00:00,116.46257856161544
2025-09-11 14:00:00+00:00,116.46257856161544
2025-09-11 15:00:00+00:00,116.46257856161544
2025-09-11 16:00:00+00:00,116.46257856161544
2025-09-11 17:00:00+00:00,116.46257856161544
2025-09-11 18:00:00+00:00,116.46257856161544
2025-09-11 19:00:00+00:00,116.46257856161544
2025-09-12 13:00:00+00:00,116.46257856161544
2025-09-12 14:00:00+00:00,116.46257856161544
2025-09-12 15:00:00+00:00,116.46257856161544
2025-09-12 16:00:00+00:00,116.46257856161544
2025-09-12 17:00:00+00:00,116.46257856161544
2025-09-12 18:00:00+00:00,116.46257856161544
2025-09-12 19:00:00+00:00,116.46257856161544
2025-09-15 13:00:00+00:00,116.46257856161544
2025-09-15 14:00:00+00:00,116.46257856161544
2025-09-15 15:00:00+00:00,116.46257856161544
2025-09-15 16:00:00+00:00,116.46257856161544
2025-09-15 17:00:00+00:00,116.46257856161544
2025-09-15 18:00:00+00:00,116.46257856161544
2025-09-15 19:00:00+00:00,116.46257856161544
2025-09-16 13:00:00+00:00,116.46257856161544
2025-09-16 14:00:00+00:00,116.46257856161544
2025-09-16 15:00:00+00:00,116.46257856161544
2025-09-16 16:00:00+00:00,116.46257856161544
2025-09-16 17:00:00+00:00,116.46257856161544
2025-09-16 18:00:00+00:00,116.46257856161544
2025-09-16 19:00:00+00:00,116.46257856161544
2025-09-17 13:00:00+00:00,116.46257856161544
2025-09-17 14:00:00+00:00,116.46257856161544
2025-09-17 15:00:00+00:00,116.46257856161544
2025-09-17 16:00:00+00:00,116.46257856161544
2025-09-17 17:00:00+00:00,116.46257856161544
2025-09-17 18:00:00+00:00,116.46257856161544
2025-09-17 19:00:00+00:00,116.46257856161544
2025-09-18 13:00:00+00:00,116.46257856161544
2025-09-18 14:00:00+00:00,116.46257856161544
2025-09-18 15:00:00+00:00,116.46257856161544
2025-09-18 16:00:00+00:00,116.46257856161544
2025-09-18 17:00:00+00:00,116.46257856161544
2025-09-18 18:00:00+00:00,116.46257856161544
2025-09-18 19:00:00+00:00,116.46257856161544
2025-09-19 13:00:00+00:00,116.46257856161544
2025-09-19 14:00:00+00:00,116.46257856161544
2025-09-19 15:00:00+00:00,116.46257856161544
2025-09-19 16:00:00+00:00,116.46257856161544
2025-09-19 17:00:00+00:00,116.46257856161544
2025-09-19 18:00:00+00:00,116.46257856161544
2025-09-19 19:00:00+00:00,116.46257856161544
2025-09-22 13:00:00+00:00,116.46257856161544
2025-09-22 14:00:00+00:00,116.46257856161544
2025-09-22 15:00:00+00:00,116.46257856161544
2025-09-22 16:00:00+00:00,116.46257856161544
2025-09-22 17:00:00+00:00,116.46257856161544
2025-09-22 18:00:00+00:00,116.46257856161544
2025-09-22 19:00:00+00:00,116.46257856161544
2025-09-23 13:00:00+00:00,116.46257856161544
2025-09-23 14:00:00+00:00,116.46257856161544
2025-09-23 15:00:00+00:00,116.46257856161544
2025-09-23 16:00:00+00:00,116.46257856161544
2025-09-23 17:00:00+00:00,116.46257856161544
2025-09-23 18:00:00+00:00,116.46257856161544
2025-09-23 19:00:00+00:00,116.46257856161544
2025-09-24 13:00:00+00:00,116.46257856161544
2025-09-24 14:00:00+00:00,116.46257856161544
2025-09-24 15:00:00+00:00,116.46257856161544
2025-09-24 16:00:00+00:00,116.46257856161544
2025-09-24 17:00:00+00:00,116.46257856161544
2025-09-24 18:00:00+00:00,116.46257856161544
2025-09-24 19:00:00+00:00,116.46257856161544
2025-09-25 13:00:00+00:00,116.46257856161544
2025-09-25 14:00:00+00:00,116.46257856161544
2025-09-25 15:00:00+00:00,116.46257856161544
2025-09-25 16:00:00+00:00,116.46257856161544
2025-09-25 17:00:00+00:00,116.46257856161544
2025-09-25 18:00:00+00:00,116.46257856161544
2025-09-25 19:00:00+00:00,116.46257856161544
2025-09-26 13:00:00+00:00,116.46257856161544
2025-09-26 14:00:00+00:00,116.46257856161544
2025-09-26 15:00:00+00:00,116.46257856161544
2025-09-26 16:00:00+00:00,116.46257856161544
2025-09-26 17:00:00+00:00,116.46257856161544
2025-09-26 18:00:00+00:00,116.46257856161544
2025-09-26 19:00:00+00:00,116.46257856161544
2025-09-29 13:00:00+00:00,116.46257856161544
2025-09-29 14:00:00+00:00,116.46257856161544
2025-09-29 15:00:00+00:00,116.46257856161544
2025-09-29 16:00:00+00:00,116.46257856161544
2025-09-29 17:00:00+00:00,116.46257856161544
2025-09-29 18:00:00+00:00,116.46257856161544
2025-09-29 19:00:00+00:00,116.46257856161544
2025-09-30 13:00:00+00:00,116.46257856161544
2025-09-30 14:00:00+00:00,116.46257856161544
2025-09-30 15:00:00+00:00,116.46257856161544
2025-09-30 16:00:00+00:00,116.46257856161544
2025-09-30 17:00:00+00:00,116.46257856161544
2025-09-30 18:00:00+00:00,116.46257856161544
2025-09-30 19:00:00+00:00,116.46257856161544
2025-10-01 13:00:00+00:00,116.46257856161544
2025-10-01 14:00:00+00:00,116.46257856161544
2025-10-01 15:00:00+00:00,116.46257856161544
2025-10-01 16:00:00+00:00,116.46257856161544
2025-10-01 17:00:00+00:00,116.46257856161544
2025-10-01 18:00:00+00:00,116.46257856161544
2025-10-01 19:00:00+00:00,116.46257856161544
2025-10-02 13:00:00+00:00,116.46257856161544
2025-10-02 14:00:00+00:00,116.46257856161544
2025-10-02 15:00:00+00:00,116.46257856161544
2025-10-02 16:00:00+00:00,116.46257856161544
2025-10-02 17:00:00+00:00,116.46257856161544
2025-10-02 18:00:00+00:00,116.46257856161544
2025-10-02 19:00:00+00:00,116.46257856161544
2025-10-03 13:00:00+00:00,116.46257856161544
2025-10-03 14:00:00+00:00,116.46257856161544
2025-10-03 15:00:00+00:00,116.46257856161544
2025-10-03 16:00:00+00:00,116.46257856161544
2025-10-03 17:00:00+00:00,116.46257856161544
2025-10-03 18:00:00+00:00,116.46257856161544
2025-10-03 19:00:00+00:00,116.46257856161544
2025-10-06 13:00:00+00:00,116.46257856161544
2025-10-06 14:00:00+00:00,116.46257856161544
2025-10-06 15:00:00+00:00,116.46257856161544
2025-10-06 16:00:00+00:00,116.46257856161544
2025-10-06 17:00:00+00:00,116.46257856161544
2025-10-06 18:00:00+00:00,116.46257856161544
2025-10-06 19:00:00+00:00,116.46257856161544
2025-10-07 13:00:00+00:00,116.46257856161544
2025-10-07 14:00:00+00:00,116.46257856161544
2025-10-07 15:00:00+00:00,116.46257856161544
2025-10-07 16:00:00+00:00,116.46257856161544
2025-10-07 17:00:00+00:00,116.46257856161544
2025-10-07 18:00:00+00:00,116.46257856161544
2025-10-07 19:00:00+00:00,116.46257856161544
2025-10-08 13:00:00+00:00,116.46257856161544
2025-10-08 14:00:00+00:00,116.46257856161544
2025-10-08 15:00:00+00:00,116.46257856161544
2025-10-08 16:00:00+00:00,116.46257856161544
2025-10-08 17:00:00+00:00,116.46257856161544
2025-10-08 18:00:00+00:00,116.46257856161544
2025-10-08 19:00:00+00:00,116.46257856161544
2025-10-09 13:00:00+00:00,116.46257856161544
2025-10-09 14:00:00+00:00,116.46257856161544
2025-10-09 15:00:00+00:00,116.46257856161544
2025-10-09 16:00:00+00:00,116.46257856161544
2025-10-09 17:00:00+00:00,116.46257856161544
2025-10-09 18:00:00+00:00,116.46257856161544
2025-10-09 19:00:00+00:00,116.46257856161544
2025-10-10 13:00:00+00:00,116.46257856161544
