Date,0
2024-01-02 14:00:00+00:00,0.0
2024-01-02 15:00:00+00:00,0.0
2024-01-02 16:00:00+00:00,0.0
2024-01-02 17:00:00+00:00,0.0
2024-01-02 18:00:00+00:00,0.0
2024-01-02 19:00:00+00:00,0.0
2024-01-02 20:00:00+00:00,0.0
2024-01-03 14:00:00+00:00,0.0
2024-01-03 15:00:00+00:00,0.0
2024-01-03 16:00:00+00:00,0.0
2024-01-03 17:00:00+00:00,0.0
2024-01-03 18:00:00+00:00,0.0
2024-01-03 19:00:00+00:00,0.0
2024-01-03 20:00:00+00:00,0.0
2024-01-04 14:00:00+00:00,0.0
2024-01-04 15:00:00+00:00,0.0
2024-01-04 16:00:00+00:00,0.0
2024-01-04 17:00:00+00:00,0.0
2024-01-04 18:00:00+00:00,0.0
2024-01-04 19:00:00+00:00,0.0
2024-01-04 20:00:00+00:00,0.0
2024-01-05 14:00:00+00:00,0.0
2024-01-05 15:00:00+00:00,0.0
2024-01-05 16:00:00+00:00,0.0
2024-01-05 17:00:00+00:00,0.0
2024-01-05 18:00:00+00:00,0.0
2024-01-05 19:00:00+00:00,0.0
2024-01-05 20:00:00+00:00,0.0
2024-01-08 14:00:00+00:00,0.0
2024-01-08 15:00:00+00:00,0.0
2024-01-08 16:00:00+00:00,0.0
2024-01-08 17:00:00+00:00,0.0
2024-01-08 18:00:00+00:00,0.0
2024-01-08 19:00:00+00:00,0.0
2024-01-08 20:00:00+00:00,0.0
2024-01-09 14:00:00+00:00,0.0
2024-01-09 15:00:00+00:00,0.0
2024-01-09 16:00:00+00:00,0.0
2024-01-09 17:00:00+00:00,0.0
2024-01-09 18:00:00+00:00,0.0
2024-01-09 19:00:00+00:00,0.0
2024-01-09 20:00:00+00:00,0.0
2024-01-10 14:00:00+00:00,0.0
2024-01-10 15:00:00+00:00,0.0
2024-01-10 16:00:00+00:00,0.0
2024-01-10 17:00:00+00:00,0.0
2024-01-10 18:00:00+00:00,0.0
2024-01-10 19:00:00+00:00,0.0
2024-01-10 20:00:00+00:00,0.0
2024-01-11 14:00:00+00:00,0.0
2024-01-11 15:00:00+00:00,0.0
2024-01-11 16:00:00+00:00,0.0
2024-01-11 17:00:00+00:00,0.0
2024-01-11 18:00:00+00:00,0.0
2024-01-11 19:00:00+00:00,0.0
2024-01-11 20:00:00+00:00,0.0
2024-01-12 14:00:00+00:00,0.0
2024-01-12 15:00:00+00:00,0.0
2024-01-12 16:00:00+00:00,0.0
2024-01-12 17:00:00+00:00,0.0
2024-01-12 18:00:00+00:00,0.0
2024-01-12 19:00:00+00:00,0.0
2024-01-12 20:00:00+00:00,0.0
2024-01-16 14:00:00+00:00,0.0
2024-01-16 15:00:00+00:00,0.0
2024-01-16 16:00:00+00:00,0.0
2024-01-16 17:00:00+00:00,0.0
2024-01-16 18:00:00+00:00,0.0
2024-01-16 19:00:00+00:00,0.0
2024-01-16 20:00:00+00:00,0.0
2024-01-17 14:00:00+00:00,0.0
2024-01-17 15:00:00+00:00,0.0
2024-01-17 16:00:00+00:00,0.0
2024-01-17 17:00:00+00:00,0.0
2024-01-17 18:00:00+00:00,0.0
2024-01-17 19:00:00+00:00,0.0
2024-01-17 20:00:00+00:00,0.0
2024-01-18 14:00:00+00:00,0.0
2024-01-18 15:00:00+00:00,0.0
2024-01-18 16:00:00+00:00,0.0
2024-01-18 17:00:00+00:00,0.0
2024-01-18 18:00:00+00:00,0.0
2024-01-18 19:00:00+00:00,0.0
2024-01-18 20:00:00+00:00,0.0
2024-01-19 14:00:00+00:00,0.0
2024-01-19 15:00:00+00:00,0.0
2024-01-19 16:00:00+00:00,0.0
2024-01-19 17:00:00+00:00,0.0
2024-01-19 18:00:00+00:00,0.0
2024-01-19 19:00:00+00:00,0.0
2024-01-19 20:00:00+00:00,0.0
2024-01-22 14:00:00+00:00,0.0
2024-01-22 15:00:00+00:00,0.0
2024-01-22 16:00:00+00:00,0.0
2024-01-22 17:00:00+00:00,0.0
2024-01-22 18:00:00+00:00,0.0
2024-01-22 19:00:00+00:00,0.0
2024-01-22 20:00:00+00:00,0.0
2024-01-23 14:00:00+00:00,0.0
2024-01-23 15:00:00+00:00,0.0
2024-01-23 16:00:00+00:00,0.0
2024-01-23 17:00:00+00:00,0.0
2024-01-23 18:00:00+00:00,0.0
2024-01-23 19:00:00+00:00,0.0
2024-01-23 20:00:00+00:00,0.0
2024-01-24 14:00:00+00:00,0.0
2024-01-24 15:00:00+00:00,0.0
2024-01-24 16:00:00+00:00,0.0
2024-01-24 17:00:00+00:00,0.0
2024-01-24 18:00:00+00:00,0.0
2024-01-24 19:00:00+00:00,0.0
2024-01-24 20:00:00+00:00,0.0
2024-01-25 14:00:00+00:00,0.0
2024-01-25 15:00:00+00:00,0.0
2024-01-25 16:00:00+00:00,0.0
2024-01-25 17:00:00+00:00,0.0
2024-01-25 18:00:00+00:00,0.0
2024-01-25 19:00:00+00:00,0.0
2024-01-25 20:00:00+00:00,0.0
2024-01-26 14:00:00+00:00,0.0
2024-01-26 15:00:00+00:00,0.0
2024-01-26 16:00:00+00:00,0.0
2024-01-26 17:00:00+00:00,0.0
2024-01-26 18:00:00+00:00,0.0
2024-01-26 19:00:00+00:00,0.0
2024-01-26 20:00:00+00:00,0.0
2024-01-29 14:00:00+00:00,0.0
2024-01-29 15:00:00+00:00,0.0
2024-01-29 16:00:00+00:00,0.0
2024-01-29 17:00:00+00:00,0.0
2024-01-29 18:00:00+00:00,0.0
2024-01-29 19:00:00+00:00,0.0
2024-01-29 20:00:00+00:00,0.0
2024-01-30 14:00:00+00:00,0.0
2024-01-30 15:00:00+00:00,0.0
2024-01-30 16:00:00+00:00,0.0
2024-01-30 17:00:00+00:00,0.0
2024-01-30 18:00:00+00:00,0.0
2024-01-30 19:00:00+00:00,0.0
2024-01-30 20:00:00+00:00,0.0
2024-01-31 14:00:00+00:00,0.0
2024-01-31 15:00:00+00:00,0.0
2024-01-31 16:00:00+00:00,0.0
2024-01-31 17:00:00+00:00,0.0
2024-01-31 18:00:00+00:00,0.0
2024-01-31 19:00:00+00:00,0.0
2024-01-31 20:00:00+00:00,0.0
2024-02-01 14:00:00+00:00,0.0
2024-02-01 15:00:00+00:00,0.0
2024-02-01 16:00:00+00:00,0.0
2024-02-01 17:00:00+00:00,0.0
2024-02-01 18:00:00+00:00,0.0
2024-02-01 19:00:00+00:00,0.0
2024-02-01 20:00:00+00:00,0.0
2024-02-02 14:00:00+00:00,0.0
2024-02-02 15:00:00+00:00,0.0
2024-02-02 16:00:00+00:00,0.0
2024-02-02 17:00:00+00:00,0.0
2024-02-02 18:00:00+00:00,0.0
2024-02-02 19:00:00+00:00,0.0
2024-02-02 20:00:00+00:00,0.0
2024-02-05 14:00:00+00:00,0.0
2024-02-05 15:00:00+00:00,0.0
2024-02-05 16:00:00+00:00,0.0
2024-02-05 17:00:00+00:00,0.0
2024-02-05 18:00:00+00:00,0.0
2024-02-05 19:00:00+00:00,0.0
2024-02-05 20:00:00+00:00,0.0
2024-02-06 14:00:00+00:00,0.0
2024-02-06 15:00:00+00:00,0.0
2024-02-06 16:00:00+00:00,0.0
2024-02-06 17:00:00+00:00,0.0
2024-02-06 18:00:00+00:00,0.0
2024-02-06 19:00:00+00:00,0.0
2024-02-06 20:00:00+00:00,0.0
2024-02-07 14:00:00+00:00,0.0
2024-02-07 15:00:00+00:00,0.0
2024-02-07 16:00:00+00:00,0.0
2024-02-07 17:00:00+00:00,0.0
2024-02-07 18:00:00+00:00,0.0
2024-02-07 19:00:00+00:00,0.0
2024-02-07 20:00:00+00:00,0.0
2024-02-08 14:00:00+00:00,0.0
2024-02-08 15:00:00+00:00,0.0
2024-02-08 16:00:00+00:00,0.0
2024-02-08 17:00:00+00:00,0.0
2024-02-08 18:00:00+00:00,0.0
2024-02-08 19:00:00+00:00,0.0
2024-02-08 20:00:00+00:00,0.0
2024-02-09 14:00:00+00:00,0.0
2024-02-09 15:00:00+00:00,0.0
2024-02-09 16:00:00+00:00,0.0
2024-02-09 17:00:00+00:00,0.0
2024-02-09 18:00:00+00:00,0.0
2024-02-09 19:00:00+00:00,0.0
2024-02-09 20:00:00+00:00,0.0
2024-02-12 14:00:00+00:00,0.0
2024-02-12 15:00:00+00:00,0.0
2024-02-12 16:00:00+00:00,0.0
2024-02-12 17:00:00+00:00,0.0
2024-02-12 18:00:00+00:00,0.0
2024-02-12 19:00:00+00:00,0.0
2024-02-12 20:00:00+00:00,0.0
2024-02-13 14:00:00+00:00,0.0
2024-02-13 15:00:00+00:00,0.0
2024-02-13 16:00:00+00:00,0.0
2024-02-13 17:00:00+00:00,0.0
2024-02-13 18:00:00+00:00,0.0
2024-02-13 19:00:00+00:00,0.0
2024-02-13 20:00:00+00:00,0.0
2024-02-14 14:00:00+00:00,0.0
2024-02-14 15:00:00+00:00,0.0
2024-02-14 16:00:00+00:00,0.0
2024-02-14 17:00:00+00:00,0.0
2024-02-14 18:00:00+00:00,0.0
2024-02-14 19:00:00+00:00,0.0
2024-02-14 20:00:00+00:00,0.0
2024-02-15 14:00:00+00:00,0.0
2024-02-15 15:00:00+00:00,0.0
2024-02-15 16:00:00+00:00,0.0
2024-02-15 17:00:00+00:00,0.0
2024-02-15 18:00:00+00:00,0.0
2024-02-15 19:00:00+00:00,0.0
2024-02-15 20:00:00+00:00,0.0
2024-02-16 14:00:00+00:00,0.0
2024-02-16 15:00:00+00:00,0.0
2024-02-16 16:00:00+00:00,0.0
2024-02-16 17:00:00+00:00,0.0
2024-02-16 18:00:00+00:00,0.0
2024-02-16 19:00:00+00:00,0.0
2024-02-16 20:00:00+00:00,0.0
2024-02-20 14:00:00+00:00,0.0
2024-02-20 15:00:00+00:00,0.0
2024-02-20 16:00:00+00:00,0.0
2024-02-20 17:00:00+00:00,0.0
2024-02-20 18:00:00+00:00,0.0
2024-02-20 19:00:00+00:00,0.0
2024-02-20 20:00:00+00:00,0.0
2024-02-21 14:00:00+00:00,0.0
2024-02-21 15:00:00+00:00,0.0
2024-02-21 16:00:00+00:00,0.0
2024-02-21 17:00:00+00:00,0.0
2024-02-21 18:00:00+00:00,0.0
2024-02-21 19:00:00+00:00,0.0
2024-02-21 20:00:00+00:00,0.0
2024-02-22 14:00:00+00:00,0.0
2024-02-22 15:00:00+00:00,0.0
2024-02-22 16:00:00+00:00,0.0
2024-02-22 17:00:00+00:00,0.0
2024-02-22 18:00:00+00:00,0.0
2024-02-22 19:00:00+00:00,0.0
2024-02-22 20:00:00+00:00,0.0
2024-02-23 14:00:00+00:00,0.0
2024-02-23 15:00:00+00:00,0.0
2024-02-23 16:00:00+00:00,0.0
2024-02-23 17:00:00+00:00,0.0
2024-02-23 18:00:00+00:00,0.0
2024-02-23 19:00:00+00:00,0.0
2024-02-23 20:00:00+00:00,0.0
2024-02-26 14:00:00+00:00,0.0
2024-02-26 15:00:00+00:00,0.0
2024-02-26 16:00:00+00:00,0.0
2024-02-26 17:00:00+00:00,0.0
2024-02-26 18:00:00+00:00,0.0
2024-02-26 19:00:00+00:00,0.0
2024-02-26 20:00:00+00:00,0.0
2024-02-27 14:00:00+00:00,0.0
2024-02-27 15:00:00+00:00,0.0
2024-02-27 16:00:00+00:00,0.0
2024-02-27 17:00:00+00:00,0.0
2024-02-27 18:00:00+00:00,0.0
2024-02-27 19:00:00+00:00,0.0
2024-02-27 20:00:00+00:00,0.0
2024-02-28 14:00:00+00:00,0.0
2024-02-28 15:00:00+00:00,0.0
2024-02-28 16:00:00+00:00,0.0
2024-02-28 17:00:00+00:00,0.0
2024-02-28 18:00:00+00:00,0.0
2024-02-28 19:00:00+00:00,0.0
2024-02-28 20:00:00+00:00,0.0
2024-02-29 14:00:00+00:00,0.0
2024-02-29 15:00:00+00:00,0.0
2024-02-29 16:00:00+00:00,0.0
2024-02-29 17:00:00+00:00,0.0
2024-02-29 18:00:00+00:00,0.0
2024-02-29 19:00:00+00:00,0.0
2024-02-29 20:00:00+00:00,0.0
2024-03-01 14:00:00+00:00,0.0
2024-03-01 15:00:00+00:00,0.0
2024-03-01 16:00:00+00:00,0.0
2024-03-01 17:00:00+00:00,0.0
2024-03-01 18:00:00+00:00,0.0
2024-03-01 19:00:00+00:00,0.0
2024-03-01 20:00:00+00:00,0.0
2024-03-04 14:00:00+00:00,0.0
2024-03-04 15:00:00+00:00,0.0
2024-03-04 16:00:00+00:00,0.0
2024-03-04 17:00:00+00:00,0.0
2024-03-04 18:00:00+00:00,0.0
2024-03-04 19:00:00+00:00,0.0
2024-03-04 20:00:00+00:00,0.0
2024-03-05 14:00:00+00:00,0.0
2024-03-05 15:00:00+00:00,0.0
2024-03-05 16:00:00+00:00,0.0
2024-03-05 17:00:00+00:00,0.0
2024-03-05 18:00:00+00:00,0.0
2024-03-05 19:00:00+00:00,0.0
2024-03-05 20:00:00+00:00,0.0
2024-03-06 14:00:00+00:00,0.0
2024-03-06 15:00:00+00:00,0.0
2024-03-06 16:00:00+00:00,0.0
2024-03-06 17:00:00+00:00,0.0
2024-03-06 18:00:00+00:00,0.0
2024-03-06 19:00:00+00:00,0.0
2024-03-06 20:00:00+00:00,0.0
2024-03-07 14:00:00+00:00,0.0
2024-03-07 15:00:00+00:00,0.0
2024-03-07 16:00:00+00:00,0.0
2024-03-07 17:00:00+00:00,0.0
2024-03-07 18:00:00+00:00,0.0
2024-03-07 19:00:00+00:00,0.0
2024-03-07 20:00:00+00:00,0.0
2024-03-08 14:00:00+00:00,0.0
2024-03-08 15:00:00+00:00,0.0
2024-03-08 16:00:00+00:00,0.0
2024-03-08 17:00:00+00:00,0.0
2024-03-08 18:00:00+00:00,0.0
2024-03-08 19:00:00+00:00,0.0
2024-03-08 20:00:00+00:00,0.0
2024-03-11 13:00:00+00:00,0.0
2024-03-11 14:00:00+00:00,0.0
2024-03-11 15:00:00+00:00,0.0
2024-03-11 16:00:00+00:00,0.0
2024-03-11 17:00:00+00:00,0.0
2024-03-11 18:00:00+00:00,0.0
2024-03-11 19:00:00+00:00,0.0
2024-03-12 13:00:00+00:00,0.0
2024-03-12 14:00:00+00:00,0.0
2024-03-12 15:00:00+00:00,0.0
2024-03-12 16:00:00+00:00,0.0
2024-03-12 17:00:00+00:00,0.0
2024-03-12 18:00:00+00:00,0.0
2024-03-12 19:00:00+00:00,0.0
2024-03-13 13:00:00+00:00,0.0
2024-03-13 14:00:00+00:00,0.0
2024-03-13 15:00:00+00:00,0.0
2024-03-13 16:00:00+00:00,0.0
2024-03-13 17:00:00+00:00,0.0
2024-03-13 18:00:00+00:00,0.0
2024-03-13 19:00:00+00:00,0.0
2024-03-14 13:00:00+00:00,0.0
2024-03-14 14:00:00+00:00,0.0
2024-03-14 15:00:00+00:00,0.0
2024-03-14 16:00:00+00:00,0.0
2024-03-14 17:00:00+00:00,0.0
2024-03-14 18:00:00+00:00,0.0
2024-03-14 19:00:00+00:00,0.0
2024-03-15 13:00:00+00:00,0.0
2024-03-15 14:00:00+00:00,0.0
2024-03-15 15:00:00+00:00,0.0
2024-03-15 16:00:00+00:00,0.0
2024-03-15 17:00:00+00:00,0.0
2024-03-15 18:00:00+00:00,0.0
2024-03-15 19:00:00+00:00,0.0
2024-03-18 13:00:00+00:00,0.0
2024-03-18 14:00:00+00:00,0.0
2024-03-18 15:00:00+00:00,0.0
2024-03-18 16:00:00+00:00,0.0
2024-03-18 17:00:00+00:00,0.0
2024-03-18 18:00:00+00:00,0.0
2024-03-18 19:00:00+00:00,0.0
2024-03-19 13:00:00+00:00,0.0
2024-03-19 14:00:00+00:00,0.0
2024-03-19 15:00:00+00:00,0.0
2024-03-19 16:00:00+00:00,0.0
2024-03-19 17:00:00+00:00,0.0
2024-03-19 18:00:00+00:00,0.0
2024-03-19 19:00:00+00:00,0.0
2024-03-20 13:00:00+00:00,0.0
2024-03-20 14:00:00+00:00,0.0
2024-03-20 15:00:00+00:00,0.0
2024-03-20 16:00:00+00:00,0.0
2024-03-20 17:00:00+00:00,0.0
2024-03-20 18:00:00+00:00,0.0
2024-03-20 19:00:00+00:00,0.0
2024-03-21 13:00:00+00:00,0.0
2024-03-21 14:00:00+00:00,0.0
2024-03-21 15:00:00+00:00,0.0
2024-03-21 16:00:00+00:00,0.0
2024-03-21 17:00:00+00:00,0.0
2024-03-21 18:00:00+00:00,0.0
2024-03-21 19:00:00+00:00,0.0
2024-03-22 13:00:00+00:00,0.0
2024-03-22 14:00:00+00:00,0.0
2024-03-22 15:00:00+00:00,0.0
2024-03-22 16:00:00+00:00,0.0
2024-03-22 17:00:00+00:00,0.0
2024-03-22 18:00:00+00:00,0.0
2024-03-22 19:00:00+00:00,0.0
2024-03-25 13:00:00+00:00,0.0
2024-03-25 14:00:00+00:00,0.0
2024-03-25 15:00:00+00:00,0.0
2024-03-25 16:00:00+00:00,0.0
2024-03-25 17:00:00+00:00,0.0
2024-03-25 18:00:00+00:00,0.0
2024-03-25 19:00:00+00:00,0.0
2024-03-26 13:00:00+00:00,0.0
2024-03-26 14:00:00+00:00,0.0
2024-03-26 15:00:00+00:00,0.0
2024-03-26 16:00:00+00:00,0.0
2024-03-26 17:00:00+00:00,0.0
2024-03-26 18:00:00+00:00,0.0
2024-03-26 19:00:00+00:00,0.0
2024-03-27 13:00:00+00:00,0.0
2024-03-27 14:00:00+00:00,0.0
2024-03-27 15:00:00+00:00,0.0
2024-03-27 16:00:00+00:00,0.0
2024-03-27 17:00:00+00:00,0.0
2024-03-27 18:00:00+00:00,0.0
2024-03-27 19:00:00+00:00,0.0
2024-03-28 13:00:00+00:00,0.0
2024-03-28 14:00:00+00:00,0.0
2024-03-28 15:00:00+00:00,0.0
2024-03-28 16:00:00+00:00,0.0
2024-03-28 17:00:00+00:00,0.0
2024-03-28 18:00:00+00:00,0.0
2024-03-28 19:00:00+00:00,0.0
2024-04-01 13:00:00+00:00,0.0
2024-04-01 14:00:00+00:00,0.0
2024-04-01 15:00:00+00:00,0.0
2024-04-01 16:00:00+00:00,0.0
2024-04-01 17:00:00+00:00,0.0
2024-04-01 18:00:00+00:00,0.0
2024-04-01 19:00:00+00:00,0.0
2024-04-02 13:00:00+00:00,0.0
2024-04-02 14:00:00+00:00,0.0
2024-04-02 15:00:00+00:00,0.0
2024-04-02 16:00:00+00:00,0.0
2024-04-02 17:00:00+00:00,0.0
2024-04-02 18:00:00+00:00,0.0
2024-04-02 19:00:00+00:00,0.0
2024-04-03 13:00:00+00:00,0.0
2024-04-03 14:00:00+00:00,0.0
2024-04-03 15:00:00+00:00,0.0
2024-04-03 16:00:00+00:00,0.0
2024-04-03 17:00:00+00:00,0.0
2024-04-03 18:00:00+00:00,0.0
2024-04-03 19:00:00+00:00,0.0
2024-04-04 13:00:00+00:00,0.0
2024-04-04 14:00:00+00:00,0.0
2024-04-04 15:00:00+00:00,0.0
2024-04-04 16:00:00+00:00,0.0
2024-04-04 17:00:00+00:00,0.0
2024-04-04 18:00:00+00:00,0.0
2024-04-04 19:00:00+00:00,0.0
2024-04-05 13:00:00+00:00,0.0
2024-04-05 14:00:00+00:00,0.0
2024-04-05 15:00:00+00:00,0.0
2024-04-05 16:00:00+00:00,0.0
2024-04-05 17:00:00+00:00,0.0
2024-04-05 18:00:00+00:00,0.0
2024-04-05 19:00:00+00:00,0.0
2024-04-08 13:00:00+00:00,0.0
2024-04-08 14:00:00+00:00,0.0
2024-04-08 15:00:00+00:00,0.0
2024-04-08 16:00:00+00:00,0.0
2024-04-08 17:00:00+00:00,0.0
2024-04-08 18:00:00+00:00,0.0
2024-04-08 19:00:00+00:00,0.0
2024-04-09 13:00:00+00:00,0.0
2024-04-09 14:00:00+00:00,0.0
2024-04-09 15:00:00+00:00,0.0
2024-04-09 16:00:00+00:00,0.0
2024-04-09 17:00:00+00:00,0.0
2024-04-09 18:00:00+00:00,0.0
2024-04-09 19:00:00+00:00,0.0
2024-04-10 13:00:00+00:00,0.0
2024-04-10 14:00:00+00:00,0.0
2024-04-10 15:00:00+00:00,0.0
2024-04-10 16:00:00+00:00,0.0
2024-04-10 17:00:00+00:00,0.0
2024-04-10 18:00:00+00:00,0.0
2024-04-10 19:00:00+00:00,0.0
2024-04-11 13:00:00+00:00,0.0
2024-04-11 14:00:00+00:00,0.0
2024-04-11 15:00:00+00:00,0.0
2024-04-11 16:00:00+00:00,0.0
2024-04-11 17:00:00+00:00,0.0
2024-04-11 18:00:00+00:00,0.0
2024-04-11 19:00:00+00:00,0.0
2024-04-12 13:00:00+00:00,0.0
2024-04-12 14:00:00+00:00,0.0
2024-04-12 15:00:00+00:00,0.0
2024-04-12 16:00:00+00:00,0.0
2024-04-12 17:00:00+00:00,0.0
2024-04-12 18:00:00+00:00,0.0
2024-04-12 19:00:00+00:00,0.0
2024-04-15 13:00:00+00:00,0.0
2024-04-15 14:00:00+00:00,0.0
2024-04-15 15:00:00+00:00,0.0
2024-04-15 16:00:00+00:00,0.0
2024-04-15 17:00:00+00:00,0.0
2024-04-15 18:00:00+00:00,0.0
2024-04-15 19:00:00+00:00,0.0
2024-04-16 13:00:00+00:00,0.0
2024-04-16 14:00:00+00:00,0.0
2024-04-16 15:00:00+00:00,0.0
2024-04-16 16:00:00+00:00,0.0
2024-04-16 17:00:00+00:00,0.0
2024-04-16 18:00:00+00:00,0.0
2024-04-16 19:00:00+00:00,0.0
2024-04-17 13:00:00+00:00,0.0
2024-04-17 14:00:00+00:00,0.0
2024-04-17 15:00:00+00:00,0.0
2024-04-17 16:00:00+00:00,0.0
2024-04-17 17:00:00+00:00,0.0
2024-04-17 18:00:00+00:00,0.0
2024-04-17 19:00:00+00:00,0.0
2024-04-18 13:00:00+00:00,0.0
2024-04-18 14:00:00+00:00,0.0
2024-04-18 15:00:00+00:00,0.0
2024-04-18 16:00:00+00:00,0.0
2024-04-18 17:00:00+00:00,0.0
2024-04-18 18:00:00+00:00,0.0
2024-04-18 19:00:00+00:00,0.0
2024-04-19 13:00:00+00:00,0.0
2024-04-19 14:00:00+00:00,0.0
2024-04-19 15:00:00+00:00,0.0
2024-04-19 16:00:00+00:00,0.0
2024-04-19 17:00:00+00:00,0.0
2024-04-19 18:00:00+00:00,0.0
2024-04-19 19:00:00+00:00,0.0
2024-04-22 13:00:00+00:00,0.0
2024-04-22 14:00:00+00:00,0.0
2024-04-22 15:00:00+00:00,0.0
2024-04-22 16:00:00+00:00,0.0
2024-04-22 17:00:00+00:00,0.0
2024-04-22 18:00:00+00:00,0.0
2024-04-22 19:00:00+00:00,0.0
2024-04-23 13:00:00+00:00,0.0
2024-04-23 14:00:00+00:00,0.0
2024-04-23 15:00:00+00:00,0.0
2024-04-23 16:00:00+00:00,0.0
2024-04-23 17:00:00+00:00,0.0
2024-04-23 18:00:00+00:00,0.0
2024-04-23 19:00:00+00:00,0.0
2024-04-24 13:00:00+00:00,0.0
2024-04-24 14:00:00+00:00,0.0
2024-04-24 15:00:00+00:00,0.0
2024-04-24 16:00:00+00:00,0.0
2024-04-24 17:00:00+00:00,0.0
2024-04-24 18:00:00+00:00,0.0
2024-04-24 19:00:00+00:00,0.0
2024-04-25 13:00:00+00:00,0.0
2024-04-25 14:00:00+00:00,0.0
2024-04-25 15:00:00+00:00,0.0
2024-04-25 16:00:00+00:00,0.0
2024-04-25 17:00:00+00:00,0.0
2024-04-25 18:00:00+00:00,0.0
2024-04-25 19:00:00+00:00,0.0
2024-04-26 13:00:00+00:00,0.0
2024-04-26 14:00:00+00:00,0.0
2024-04-26 15:00:00+00:00,0.0
2024-04-26 16:00:00+00:00,0.0
2024-04-26 17:00:00+00:00,0.0
2024-04-26 18:00:00+00:00,0.0
2024-04-26 19:00:00+00:00,0.0
2024-04-29 13:00:00+00:00,0.0
2024-04-29 14:00:00+00:00,0.0
2024-04-29 15:00:00+00:00,0.0
2024-04-29 16:00:00+00:00,0.0
2024-04-29 17:00:00+00:00,0.0
2024-04-29 18:00:00+00:00,0.0
2024-04-29 19:00:00+00:00,0.0
2024-04-30 13:00:00+00:00,0.0
2024-04-30 14:00:00+00:00,0.0
2024-04-30 15:00:00+00:00,0.0
2024-04-30 16:00:00+00:00,0.0
2024-04-30 17:00:00+00:00,0.0
2024-04-30 18:00:00+00:00,0.0
2024-04-30 19:00:00+00:00,0.0
2024-05-01 13:00:00+00:00,0.0
2024-05-01 14:00:00+00:00,0.0
2024-05-01 15:00:00+00:00,0.0
2024-05-01 16:00:00+00:00,0.0
2024-05-01 17:00:00+00:00,0.0
2024-05-01 18:00:00+00:00,0.0
2024-05-01 19:00:00+00:00,0.0
2024-05-02 13:00:00+00:00,0.0
2024-05-02 14:00:00+00:00,0.0
2024-05-02 15:00:00+00:00,0.0
2024-05-02 16:00:00+00:00,0.0
2024-05-02 17:00:00+00:00,0.0
2024-05-02 18:00:00+00:00,0.0
2024-05-02 19:00:00+00:00,0.0
2024-05-03 13:00:00+00:00,0.0
2024-05-03 14:00:00+00:00,0.0
2024-05-03 15:00:00+00:00,0.0
2024-05-03 16:00:00+00:00,0.0
2024-05-03 17:00:00+00:00,0.0
2024-05-03 18:00:00+00:00,0.0
2024-05-03 19:00:00+00:00,0.0
2024-05-06 13:00:00+00:00,0.0
2024-05-06 14:00:00+00:00,0.0
2024-05-06 15:00:00+00:00,0.0
2024-05-06 16:00:00+00:00,0.0
2024-05-06 17:00:00+00:00,0.0
2024-05-06 18:00:00+00:00,0.0
2024-05-06 19:00:00+00:00,0.0
2024-05-07 13:00:00+00:00,0.0
2024-05-07 14:00:00+00:00,0.0
2024-05-07 15:00:00+00:00,0.0
2024-05-07 16:00:00+00:00,0.0
2024-05-07 17:00:00+00:00,0.0
2024-05-07 18:00:00+00:00,0.0
2024-05-07 19:00:00+00:00,0.0
2024-05-08 13:00:00+00:00,0.0
2024-05-08 14:00:00+00:00,0.0
2024-05-08 15:00:00+00:00,0.0
2024-05-08 16:00:00+00:00,0.0
2024-05-08 17:00:00+00:00,0.0
2024-05-08 18:00:00+00:00,0.0
2024-05-08 19:00:00+00:00,0.0
2024-05-09 13:00:00+00:00,0.0
2024-05-09 14:00:00+00:00,0.0
2024-05-09 15:00:00+00:00,0.0
2024-05-09 16:00:00+00:00,0.0
2024-05-09 17:00:00+00:00,0.0
2024-05-09 18:00:00+00:00,0.0
2024-05-09 19:00:00+00:00,0.0
2024-05-10 13:00:00+00:00,0.0
2024-05-10 14:00:00+00:00,0.0
2024-05-10 15:00:00+00:00,0.0
2024-05-10 16:00:00+00:00,0.0
2024-05-10 17:00:00+00:00,0.0
2024-05-10 18:00:00+00:00,0.0
2024-05-10 19:00:00+00:00,0.0
2024-05-13 13:00:00+00:00,0.0
2024-05-13 14:00:00+00:00,0.0
2024-05-13 15:00:00+00:00,0.0
2024-05-13 16:00:00+00:00,0.0
2024-05-13 17:00:00+00:00,0.0
2024-05-13 18:00:00+00:00,0.0
2024-05-13 19:00:00+00:00,0.0
2024-05-14 13:00:00+00:00,0.0
2024-05-14 14:00:00+00:00,0.0
2024-05-14 15:00:00+00:00,0.0
2024-05-14 16:00:00+00:00,0.0
2024-05-14 17:00:00+00:00,0.0
2024-05-14 18:00:00+00:00,0.0
2024-05-14 19:00:00+00:00,0.0
2024-05-15 13:00:00+00:00,0.0
2024-05-15 14:00:00+00:00,0.0
2024-05-15 15:00:00+00:00,0.0
2024-05-15 16:00:00+00:00,0.0
2024-05-15 17:00:00+00:00,0.0
2024-05-15 18:00:00+00:00,0.0
2024-05-15 19:00:00+00:00,0.0
2024-05-16 13:00:00+00:00,0.0
2024-05-16 14:00:00+00:00,0.0
2024-05-16 15:00:00+00:00,0.0
2024-05-16 16:00:00+00:00,0.0
2024-05-16 17:00:00+00:00,0.0
2024-05-16 18:00:00+00:00,0.0
2024-05-16 19:00:00+00:00,0.0
2024-05-17 13:00:00+00:00,0.0
2024-05-17 14:00:00+00:00,0.0
2024-05-17 15:00:00+00:00,0.0
2024-05-17 16:00:00+00:00,0.0
2024-05-17 17:00:00+00:00,0.0
2024-05-17 18:00:00+00:00,0.0
2024-05-17 19:00:00+00:00,0.0
2024-05-20 13:00:00+00:00,0.0
2024-05-20 14:00:00+00:00,0.0
2024-05-20 15:00:00+00:00,0.0
2024-05-20 16:00:00+00:00,0.0
2024-05-20 17:00:00+00:00,0.0
2024-05-20 18:00:00+00:00,0.0
2024-05-20 19:00:00+00:00,0.0
2024-05-21 13:00:00+00:00,0.0
2024-05-21 14:00:00+00:00,0.0
2024-05-21 15:00:00+00:00,0.0
2024-05-21 16:00:00+00:00,0.0
2024-05-21 17:00:00+00:00,0.0
2024-05-21 18:00:00+00:00,0.0
2024-05-21 19:00:00+00:00,0.0
2024-05-22 13:00:00+00:00,0.0
2024-05-22 14:00:00+00:00,0.0
2024-05-22 15:00:00+00:00,0.0
2024-05-22 16:00:00+00:00,0.0
2024-05-22 17:00:00+00:00,0.0
2024-05-22 18:00:00+00:00,0.0
2024-05-22 19:00:00+00:00,0.0
2024-05-23 13:00:00+00:00,0.0
2024-05-23 14:00:00+00:00,0.0
2024-05-23 15:00:00+00:00,0.0
2024-05-23 16:00:00+00:00,0.0
2024-05-23 17:00:00+00:00,0.0
2024-05-23 18:00:00+00:00,0.0
2024-05-23 19:00:00+00:00,0.0
2024-05-24 13:00:00+00:00,0.0
2024-05-24 14:00:00+00:00,0.0
2024-05-24 15:00:00+00:00,0.0
2024-05-24 16:00:00+00:00,0.0
2024-05-24 17:00:00+00:00,0.0
2024-05-24 18:00:00+00:00,0.0
2024-05-24 19:00:00+00:00,0.0
2024-05-28 13:00:00+00:00,0.0
2024-05-28 14:00:00+00:00,0.0
2024-05-28 15:00:00+00:00,0.0
2024-05-28 16:00:00+00:00,0.0
2024-05-28 17:00:00+00:00,0.0
2024-05-28 18:00:00+00:00,0.0
2024-05-28 19:00:00+00:00,0.0
2024-05-29 13:00:00+00:00,0.0
2024-05-29 14:00:00+00:00,0.0
2024-05-29 15:00:00+00:00,0.0
2024-05-29 16:00:00+00:00,0.0
2024-05-29 17:00:00+00:00,0.0
2024-05-29 18:00:00+00:00,0.0
2024-05-29 19:00:00+00:00,0.0
2024-05-30 13:00:00+00:00,0.0
2024-05-30 14:00:00+00:00,0.0
2024-05-30 15:00:00+00:00,0.0
2024-05-30 16:00:00+00:00,0.0
2024-05-30 17:00:00+00:00,0.0
2024-05-30 18:00:00+00:00,0.0
2024-05-30 19:00:00+00:00,0.0
2024-05-31 13:00:00+00:00,0.0
2024-05-31 14:00:00+00:00,0.0
2024-05-31 15:00:00+00:00,0.0
2024-05-31 16:00:00+00:00,0.0
2024-05-31 17:00:00+00:00,0.0
2024-05-31 18:00:00+00:00,0.0
2024-05-31 19:00:00+00:00,0.0
2024-06-03 13:00:00+00:00,0.0
2024-06-03 14:00:00+00:00,0.0
2024-06-03 15:00:00+00:00,0.0
2024-06-03 16:00:00+00:00,0.0
2024-06-03 17:00:00+00:00,0.0
2024-06-03 18:00:00+00:00,0.0
2024-06-03 19:00:00+00:00,0.0
2024-06-04 13:00:00+00:00,0.0
2024-06-04 14:00:00+00:00,0.0
2024-06-04 15:00:00+00:00,0.0
2024-06-04 16:00:00+00:00,0.0
2024-06-04 17:00:00+00:00,0.0
2024-06-04 18:00:00+00:00,0.0
2024-06-04 19:00:00+00:00,0.0
2024-06-05 13:00:00+00:00,0.0
2024-06-05 14:00:00+00:00,0.0
2024-06-05 15:00:00+00:00,0.0
2024-06-05 16:00:00+00:00,0.0
2024-06-05 17:00:00+00:00,0.0
2024-06-05 18:00:00+00:00,0.0
2024-06-05 19:00:00+00:00,0.0
2024-06-06 13:00:00+00:00,0.0
2024-06-06 14:00:00+00:00,0.0
2024-06-06 15:00:00+00:00,0.0
2024-06-06 16:00:00+00:00,0.0
2024-06-06 17:00:00+00:00,0.0
2024-06-06 18:00:00+00:00,0.0
2024-06-06 19:00:00+00:00,0.0
2024-06-07 13:00:00+00:00,0.0
2024-06-07 14:00:00+00:00,0.0
2024-06-07 15:00:00+00:00,0.0
2024-06-07 16:00:00+00:00,0.0
2024-06-07 17:00:00+00:00,0.0
2024-06-07 18:00:00+00:00,0.0
2024-06-07 19:00:00+00:00,0.0
2024-06-10 13:00:00+00:00,0.0
2024-06-10 14:00:00+00:00,0.0
2024-06-10 15:00:00+00:00,0.0
2024-06-10 16:00:00+00:00,0.0
2024-06-10 17:00:00+00:00,0.0
2024-06-10 18:00:00+00:00,0.0
2024-06-10 19:00:00+00:00,0.0
2024-06-11 13:00:00+00:00,0.0
2024-06-11 14:00:00+00:00,0.0
2024-06-11 15:00:00+00:00,0.0
2024-06-11 16:00:00+00:00,0.0
2024-06-11 17:00:00+00:00,0.0
2024-06-11 18:00:00+00:00,0.0
2024-06-11 19:00:00+00:00,0.0
2024-06-12 13:00:00+00:00,0.0
2024-06-12 14:00:00+00:00,0.0
2024-06-12 15:00:00+00:00,0.0
2024-06-12 16:00:00+00:00,0.0
2024-06-12 17:00:00+00:00,0.0
2024-06-12 18:00:00+00:00,0.0
2024-06-12 19:00:00+00:00,0.0
2024-06-13 13:00:00+00:00,0.0
2024-06-13 14:00:00+00:00,0.0
2024-06-13 15:00:00+00:00,0.0
2024-06-13 16:00:00+00:00,0.0
2024-06-13 17:00:00+00:00,0.0
2024-06-13 18:00:00+00:00,0.0
2024-06-13 19:00:00+00:00,0.0
2024-06-14 13:00:00+00:00,0.0
2024-06-14 14:00:00+00:00,0.0
2024-06-14 15:00:00+00:00,0.0
2024-06-14 16:00:00+00:00,0.0
2024-06-14 17:00:00+00:00,0.0
2024-06-14 18:00:00+00:00,0.0
2024-06-14 19:00:00+00:00,0.0
2024-06-17 13:00:00+00:00,0.0
2024-06-17 14:00:00+00:00,0.0
2024-06-17 15:00:00+00:00,0.0
2024-06-17 16:00:00+00:00,0.0
2024-06-17 17:00:00+00:00,0.0
2024-06-17 18:00:00+00:00,0.0
2024-06-17 19:00:00+00:00,0.0
2024-06-18 13:00:00+00:00,0.0
2024-06-18 14:00:00+00:00,0.0
2024-06-18 15:00:00+00:00,0.0
2024-06-18 16:00:00+00:00,0.0
2024-06-18 17:00:00+00:00,0.0
2024-06-18 18:00:00+00:00,0.0
2024-06-18 19:00:00+00:00,0.0
2024-06-20 13:00:00+00:00,0.0
2024-06-20 14:00:00+00:00,0.0
2024-06-20 15:00:00+00:00,0.0
2024-06-20 16:00:00+00:00,0.0
2024-06-20 17:00:00+00:00,0.0
2024-06-20 18:00:00+00:00,0.0
2024-06-20 19:00:00+00:00,0.0
2024-06-21 13:00:00+00:00,0.0
2024-06-21 14:00:00+00:00,0.0
2024-06-21 15:00:00+00:00,0.0
2024-06-21 16:00:00+00:00,0.0
2024-06-21 17:00:00+00:00,0.0
2024-06-21 18:00:00+00:00,0.0
2024-06-21 19:00:00+00:00,0.0
2024-06-24 13:00:00+00:00,0.0
2024-06-24 14:00:00+00:00,0.0
2024-06-24 15:00:00+00:00,0.0
2024-06-24 16:00:00+00:00,0.0
2024-06-24 17:00:00+00:00,0.0
2024-06-24 18:00:00+00:00,0.0
2024-06-24 19:00:00+00:00,0.0
2024-06-25 13:00:00+00:00,0.0
2024-06-25 14:00:00+00:00,0.0
2024-06-25 15:00:00+00:00,0.0
2024-06-25 16:00:00+00:00,0.0
2024-06-25 17:00:00+00:00,0.0
2024-06-25 18:00:00+00:00,0.0
2024-06-25 19:00:00+00:00,0.0
2024-06-26 13:00:00+00:00,0.0
2024-06-26 14:00:00+00:00,0.0
2024-06-26 15:00:00+00:00,0.0
2024-06-26 16:00:00+00:00,0.0
2024-06-26 17:00:00+00:00,0.0
2024-06-26 18:00:00+00:00,0.0
2024-06-26 19:00:00+00:00,0.0
2024-06-27 13:00:00+00:00,0.0
2024-06-27 14:00:00+00:00,0.0
2024-06-27 15:00:00+00:00,0.0
2024-06-27 16:00:00+00:00,0.0
2024-06-27 17:00:00+00:00,0.0
2024-06-27 18:00:00+00:00,0.0
2024-06-27 19:00:00+00:00,0.0
2024-06-28 13:00:00+00:00,0.0
2024-06-28 14:00:00+00:00,0.0
2024-06-28 15:00:00+00:00,0.0
2024-06-28 16:00:00+00:00,0.0
2024-06-28 17:00:00+00:00,0.0
2024-06-28 18:00:00+00:00,0.0
2024-06-28 19:00:00+00:00,0.0
2024-07-01 13:00:00+00:00,0.0
2024-07-01 14:00:00+00:00,0.0
2024-07-01 15:00:00+00:00,0.0
2024-07-01 16:00:00+00:00,0.0
2024-07-01 17:00:00+00:00,0.0
2024-07-01 18:00:00+00:00,0.0
2024-07-01 19:00:00+00:00,0.0
2024-07-02 13:00:00+00:00,0.0
2024-07-02 14:00:00+00:00,0.0
2024-07-02 15:00:00+00:00,0.0
2024-07-02 16:00:00+00:00,0.0
2024-07-02 17:00:00+00:00,0.0
2024-07-02 18:00:00+00:00,0.0
2024-07-02 19:00:00+00:00,0.0
2024-07-03 13:00:00+00:00,0.0
2024-07-03 14:00:00+00:00,0.0
2024-07-03 15:00:00+00:00,0.0
2024-07-05 13:00:00+00:00,0.0
2024-07-05 14:00:00+00:00,0.0
2024-07-05 15:00:00+00:00,0.0
2024-07-05 16:00:00+00:00,0.0
2024-07-05 17:00:00+00:00,0.0
2024-07-05 18:00:00+00:00,0.0
2024-07-05 19:00:00+00:00,0.0
2024-07-08 13:00:00+00:00,0.0
2024-07-08 14:00:00+00:00,0.0
2024-07-08 15:00:00+00:00,0.0
2024-07-08 16:00:00+00:00,0.0
2024-07-08 17:00:00+00:00,0.0
2024-07-08 18:00:00+00:00,0.0
2024-07-08 19:00:00+00:00,0.0
2024-07-09 13:00:00+00:00,0.0
2024-07-09 14:00:00+00:00,0.0
2024-07-09 15:00:00+00:00,0.0
2024-07-09 16:00:00+00:00,0.0
2024-07-09 17:00:00+00:00,0.0
2024-07-09 18:00:00+00:00,0.0
2024-07-09 19:00:00+00:00,0.0
2024-07-10 13:00:00+00:00,0.0
2024-07-10 14:00:00+00:00,0.0
2024-07-10 15:00:00+00:00,0.0
2024-07-10 16:00:00+00:00,0.0
2024-07-10 17:00:00+00:00,0.0
2024-07-10 18:00:00+00:00,0.0
2024-07-10 19:00:00+00:00,0.0
2024-07-11 13:00:00+00:00,0.0
2024-07-11 14:00:00+00:00,0.0
2024-07-11 15:00:00+00:00,0.0
2024-07-11 16:00:00+00:00,0.0
2024-07-11 17:00:00+00:00,0.0
2024-07-11 18:00:00+00:00,0.0
2024-07-11 19:00:00+00:00,0.0
2024-07-12 13:00:00+00:00,0.0
2024-07-12 14:00:00+00:00,0.0
2024-07-12 15:00:00+00:00,0.0
2024-07-12 16:00:00+00:00,0.0
2024-07-12 17:00:00+00:00,0.0
2024-07-12 18:00:00+00:00,0.0
2024-07-12 19:00:00+00:00,0.0
2024-07-15 13:00:00+00:00,0.0
2024-07-15 14:00:00+00:00,0.0
2024-07-15 15:00:00+00:00,0.0
2024-07-15 16:00:00+00:00,0.0
2024-07-15 17:00:00+00:00,0.0
2024-07-15 18:00:00+00:00,0.0
2024-07-15 19:00:00+00:00,0.0
2024-07-16 13:00:00+00:00,0.0
2024-07-16 14:00:00+00:00,0.0
2024-07-16 15:00:00+00:00,0.0
2024-07-16 16:00:00+00:00,0.0
2024-07-16 17:00:00+00:00,0.0
2024-07-16 18:00:00+00:00,0.0
2024-07-16 19:00:00+00:00,0.0
2024-07-17 13:00:00+00:00,0.0
2024-07-17 14:00:00+00:00,0.0
2024-07-17 15:00:00+00:00,0.0
2024-07-17 16:00:00+00:00,0.0
2024-07-17 17:00:00+00:00,0.0
2024-07-17 18:00:00+00:00,0.0
2024-07-17 19:00:00+00:00,0.0
2024-07-18 13:00:00+00:00,0.0
2024-07-18 14:00:00+00:00,0.0
2024-07-18 15:00:00+00:00,0.0
2024-07-18 16:00:00+00:00,0.0
2024-07-18 17:00:00+00:00,0.0
2024-07-18 18:00:00+00:00,0.0
2024-07-18 19:00:00+00:00,0.0
2024-07-19 13:00:00+00:00,0.0
2024-07-19 14:00:00+00:00,0.0
2024-07-19 15:00:00+00:00,0.0
2024-07-19 16:00:00+00:00,0.0
2024-07-19 17:00:00+00:00,0.0
2024-07-19 18:00:00+00:00,0.0
2024-07-19 19:00:00+00:00,0.0
2024-07-22 13:00:00+00:00,0.0
2024-07-22 14:00:00+00:00,0.0
2024-07-22 15:00:00+00:00,0.0
2024-07-22 16:00:00+00:00,0.0
2024-07-22 17:00:00+00:00,0.0
2024-07-22 18:00:00+00:00,0.0
2024-07-22 19:00:00+00:00,0.0
2024-07-23 13:00:00+00:00,0.0
2024-07-23 14:00:00+00:00,0.0
2024-07-23 15:00:00+00:00,0.0
2024-07-23 16:00:00+00:00,0.0
2024-07-23 17:00:00+00:00,0.0
2024-07-23 18:00:00+00:00,0.0
2024-07-23 19:00:00+00:00,0.0
2024-07-24 13:00:00+00:00,0.0
2024-07-24 14:00:00+00:00,0.0
2024-07-24 15:00:00+00:00,0.0
2024-07-24 16:00:00+00:00,0.0
2024-07-24 17:00:00+00:00,0.0
2024-07-24 18:00:00+00:00,0.0
2024-07-24 19:00:00+00:00,0.0
2024-07-25 13:00:00+00:00,0.0
2024-07-25 14:00:00+00:00,0.0
2024-07-25 15:00:00+00:00,0.0
2024-07-25 16:00:00+00:00,0.0
2024-07-25 17:00:00+00:00,0.0
2024-07-25 18:00:00+00:00,0.0
2024-07-25 19:00:00+00:00,0.0
2024-07-26 13:00:00+00:00,0.0
2024-07-26 14:00:00+00:00,0.0
2024-07-26 15:00:00+00:00,0.0
2024-07-26 16:00:00+00:00,0.0
2024-07-26 17:00:00+00:00,0.0
2024-07-26 18:00:00+00:00,0.0
2024-07-26 19:00:00+00:00,0.0
2024-07-29 13:00:00+00:00,0.0
2024-07-29 14:00:00+00:00,0.0
2024-07-29 15:00:00+00:00,0.0
2024-07-29 16:00:00+00:00,0.0
2024-07-29 17:00:00+00:00,0.0
2024-07-29 18:00:00+00:00,0.0
2024-07-29 19:00:00+00:00,0.0
2024-07-30 13:00:00+00:00,0.0
2024-07-30 14:00:00+00:00,0.0
2024-07-30 15:00:00+00:00,0.0
2024-07-30 16:00:00+00:00,0.0
2024-07-30 17:00:00+00:00,0.0
2024-07-30 18:00:00+00:00,0.0
2024-07-30 19:00:00+00:00,0.0
2024-07-31 13:00:00+00:00,0.0
2024-07-31 14:00:00+00:00,0.0
2024-07-31 15:00:00+00:00,0.0
2024-07-31 16:00:00+00:00,0.0
2024-07-31 17:00:00+00:00,0.0
2024-07-31 18:00:00+00:00,0.0
2024-07-31 19:00:00+00:00,0.0
2024-08-01 13:00:00+00:00,0.0
2024-08-01 14:00:00+00:00,0.0
2024-08-01 15:00:00+00:00,0.0
2024-08-01 16:00:00+00:00,0.0
2024-08-01 17:00:00+00:00,0.0
2024-08-01 18:00:00+00:00,0.0
2024-08-01 19:00:00+00:00,0.0
2024-08-02 13:00:00+00:00,0.0
2024-08-02 14:00:00+00:00,0.0
2024-08-02 15:00:00+00:00,0.0
2024-08-02 16:00:00+00:00,0.0
2024-08-02 17:00:00+00:00,0.0
2024-08-02 18:00:00+00:00,0.0
2024-08-02 19:00:00+00:00,0.0
2024-08-05 13:00:00+00:00,0.0
2024-08-05 14:00:00+00:00,0.0
2024-08-05 15:00:00+00:00,0.0
2024-08-05 16:00:00+00:00,0.0
2024-08-05 17:00:00+00:00,0.0
2024-08-05 18:00:00+00:00,0.0
2024-08-05 19:00:00+00:00,0.0
2024-08-06 13:00:00+00:00,0.0
2024-08-06 14:00:00+00:00,0.0
2024-08-06 15:00:00+00:00,0.0
2024-08-06 16:00:00+00:00,0.0
2024-08-06 17:00:00+00:00,0.0
2024-08-06 18:00:00+00:00,0.0
2024-08-06 19:00:00+00:00,0.0
2024-08-07 13:00:00+00:00,0.0
2024-08-07 14:00:00+00:00,0.0
2024-08-07 15:00:00+00:00,0.0
2024-08-07 16:00:00+00:00,0.0
2024-08-07 17:00:00+00:00,0.0
2024-08-07 18:00:00+00:00,0.0
2024-08-07 19:00:00+00:00,0.0
2024-08-08 13:00:00+00:00,0.0
2024-08-08 14:00:00+00:00,0.0
2024-08-08 15:00:00+00:00,0.0
2024-08-08 16:00:00+00:00,0.0
2024-08-08 17:00:00+00:00,0.0
2024-08-08 18:00:00+00:00,0.0
2024-08-08 19:00:00+00:00,0.0
2024-08-09 13:00:00+00:00,0.0
2024-08-09 14:00:00+00:00,0.0
2024-08-09 15:00:00+00:00,0.0
2024-08-09 16:00:00+00:00,0.0
2024-08-09 17:00:00+00:00,0.0
2024-08-09 18:00:00+00:00,0.0
2024-08-09 19:00:00+00:00,0.0
2024-08-12 13:00:00+00:00,0.0
2024-08-12 14:00:00+00:00,0.0
2024-08-12 15:00:00+00:00,0.0
2024-08-12 16:00:00+00:00,0.0
2024-08-12 17:00:00+00:00,0.0
2024-08-12 18:00:00+00:00,0.0
2024-08-12 19:00:00+00:00,0.0
2024-08-13 13:00:00+00:00,0.0
2024-08-13 14:00:00+00:00,0.0
2024-08-13 15:00:00+00:00,0.0
2024-08-13 16:00:00+00:00,0.0
2024-08-13 17:00:00+00:00,0.0
2024-08-13 18:00:00+00:00,0.0
2024-08-13 19:00:00+00:00,0.0
2024-08-14 13:00:00+00:00,0.0
2024-08-14 14:00:00+00:00,0.0
2024-08-14 15:00:00+00:00,0.0
2024-08-14 16:00:00+00:00,0.0
2024-08-14 17:00:00+00:00,0.0
2024-08-14 18:00:00+00:00,0.0
2024-08-14 19:00:00+00:00,0.0
2024-08-15 13:00:00+00:00,0.0
2024-08-15 14:00:00+00:00,0.0
2024-08-15 15:00:00+00:00,0.0
2024-08-15 16:00:00+00:00,0.0
2024-08-15 17:00:00+00:00,0.0
2024-08-15 18:00:00+00:00,0.0
2024-08-15 19:00:00+00:00,0.0
2024-08-16 13:00:00+00:00,0.0
2024-08-16 14:00:00+00:00,0.0
2024-08-16 15:00:00+00:00,0.0
2024-08-16 16:00:00+00:00,0.0
2024-08-16 17:00:00+00:00,0.0
2024-08-16 18:00:00+00:00,0.0
2024-08-16 19:00:00+00:00,0.0
2024-08-19 13:00:00+00:00,0.0
2024-08-19 14:00:00+00:00,0.0
2024-08-19 15:00:00+00:00,0.0
2024-08-19 16:00:00+00:00,0.0
2024-08-19 17:00:00+00:00,0.0
2024-08-19 18:00:00+00:00,0.0
2024-08-19 19:00:00+00:00,0.0
2024-08-20 13:00:00+00:00,0.0
2024-08-20 14:00:00+00:00,0.0
2024-08-20 15:00:00+00:00,0.0
2024-08-20 16:00:00+00:00,0.0
2024-08-20 17:00:00+00:00,0.0
2024-08-20 18:00:00+00:00,0.0
2024-08-20 19:00:00+00:00,0.0
2024-08-21 13:00:00+00:00,0.0
2024-08-21 14:00:00+00:00,0.0
2024-08-21 15:00:00+00:00,0.0
2024-08-21 16:00:00+00:00,0.0
2024-08-21 17:00:00+00:00,0.0
2024-08-21 18:00:00+00:00,0.0
2024-08-21 19:00:00+00:00,0.0
2024-08-22 13:00:00+00:00,0.0
2024-08-22 14:00:00+00:00,0.0
2024-08-22 15:00:00+00:00,0.0
2024-08-22 16:00:00+00:00,0.0
2024-08-22 17:00:00+00:00,0.0
2024-08-22 18:00:00+00:00,0.0
2024-08-22 19:00:00+00:00,0.0
2024-08-23 13:00:00+00:00,0.0
2024-08-23 14:00:00+00:00,0.0
2024-08-23 15:00:00+00:00,0.0
2024-08-23 16:00:00+00:00,0.0
2024-08-23 17:00:00+00:00,0.0
2024-08-23 18:00:00+00:00,0.0
2024-08-23 19:00:00+00:00,0.0
2024-08-26 13:00:00+00:00,0.0
2024-08-26 14:00:00+00:00,0.0
2024-08-26 15:00:00+00:00,0.0
2024-08-26 16:00:00+00:00,0.0
2024-08-26 17:00:00+00:00,0.0
2024-08-26 18:00:00+00:00,0.0
2024-08-26 19:00:00+00:00,0.0
2024-08-27 13:00:00+00:00,0.0
2024-08-27 14:00:00+00:00,0.0
2024-08-27 15:00:00+00:00,0.0
2024-08-27 16:00:00+00:00,0.0
2024-08-27 17:00:00+00:00,0.0
2024-08-27 18:00:00+00:00,0.0
2024-08-27 19:00:00+00:00,0.0
2024-08-28 13:00:00+00:00,0.0
2024-08-28 14:00:00+00:00,0.0
2024-08-28 15:00:00+00:00,0.0
2024-08-28 16:00:00+00:00,0.0
2024-08-28 17:00:00+00:00,0.0
2024-08-28 18:00:00+00:00,0.0
2024-08-28 19:00:00+00:00,0.0
2024-08-29 13:00:00+00:00,0.0
2024-08-29 14:00:00+00:00,0.0
2024-08-29 15:00:00+00:00,0.0
2024-08-29 16:00:00+00:00,0.0
2024-08-29 17:00:00+00:00,0.0
2024-08-29 18:00:00+00:00,0.0
2024-08-29 19:00:00+00:00,0.0
2024-08-30 13:00:00+00:00,0.0
2024-08-30 14:00:00+00:00,0.0
2024-08-30 15:00:00+00:00,0.0
2024-08-30 16:00:00+00:00,0.0
2024-08-30 17:00:00+00:00,0.0
2024-08-30 18:00:00+00:00,0.0
2024-08-30 19:00:00+00:00,0.0
2024-09-03 13:00:00+00:00,0.0
2024-09-03 14:00:00+00:00,0.0
2024-09-03 15:00:00+00:00,0.0
2024-09-03 16:00:00+00:00,0.0
2024-09-03 17:00:00+00:00,0.0
2024-09-03 18:00:00+00:00,0.0
2024-09-03 19:00:00+00:00,0.0
2024-09-04 13:00:00+00:00,0.0
2024-09-04 14:00:00+00:00,0.0
2024-09-04 15:00:00+00:00,0.0
2024-09-04 16:00:00+00:00,0.0
2024-09-04 17:00:00+00:00,0.0
2024-09-04 18:00:00+00:00,0.0
2024-09-04 19:00:00+00:00,0.0
2024-09-05 13:00:00+00:00,0.0
2024-09-05 14:00:00+00:00,0.0
2024-09-05 15:00:00+00:00,0.0
2024-09-05 16:00:00+00:00,0.0
2024-09-05 17:00:00+00:00,0.0
2024-09-05 18:00:00+00:00,0.0
2024-09-05 19:00:00+00:00,0.0
2024-09-06 13:00:00+00:00,0.0
2024-09-06 14:00:00+00:00,0.0
2024-09-06 15:00:00+00:00,0.0
2024-09-06 16:00:00+00:00,0.0
2024-09-06 17:00:00+00:00,0.0
2024-09-06 18:00:00+00:00,0.0
2024-09-06 19:00:00+00:00,0.0
2024-09-09 13:00:00+00:00,0.0
2024-09-09 14:00:00+00:00,0.0
2024-09-09 15:00:00+00:00,0.0
2024-09-09 16:00:00+00:00,0.0
2024-09-09 17:00:00+00:00,0.0
2024-09-09 18:00:00+00:00,0.0
2024-09-09 19:00:00+00:00,0.0
2024-09-10 13:00:00+00:00,0.0
2024-09-10 14:00:00+00:00,0.0
2024-09-10 15:00:00+00:00,0.0
2024-09-10 16:00:00+00:00,0.0
2024-09-10 17:00:00+00:00,0.0
2024-09-10 18:00:00+00:00,0.0
2024-09-10 19:00:00+00:00,0.0
2024-09-11 13:00:00+00:00,0.0
2024-09-11 14:00:00+00:00,0.0
2024-09-11 15:00:00+00:00,0.0
2024-09-11 16:00:00+00:00,0.0
2024-09-11 17:00:00+00:00,0.0
2024-09-11 18:00:00+00:00,0.0
2024-09-11 19:00:00+00:00,0.0
2024-09-12 13:00:00+00:00,0.0
2024-09-12 14:00:00+00:00,0.0
2024-09-12 15:00:00+00:00,0.0
2024-09-12 16:00:00+00:00,0.0
2024-09-12 17:00:00+00:00,0.0
2024-09-12 18:00:00+00:00,0.0
2024-09-12 19:00:00+00:00,0.0
2024-09-13 13:00:00+00:00,0.0
2024-09-13 14:00:00+00:00,0.0
2024-09-13 15:00:00+00:00,0.0
2024-09-13 16:00:00+00:00,0.0
2024-09-13 17:00:00+00:00,0.0
2024-09-13 18:00:00+00:00,0.0
2024-09-13 19:00:00+00:00,0.0
2024-09-16 13:00:00+00:00,0.0
2024-09-16 14:00:00+00:00,0.0
2024-09-16 15:00:00+00:00,0.0
2024-09-16 16:00:00+00:00,0.0
2024-09-16 17:00:00+00:00,0.0
2024-09-16 18:00:00+00:00,0.0
2024-09-16 19:00:00+00:00,0.0
2024-09-17 13:00:00+00:00,0.0
2024-09-17 14:00:00+00:00,0.0
2024-09-17 15:00:00+00:00,0.0
2024-09-17 16:00:00+00:00,0.0
2024-09-17 17:00:00+00:00,0.0
2024-09-17 18:00:00+00:00,0.0
2024-09-17 19:00:00+00:00,0.0
2024-09-18 13:00:00+00:00,0.0
2024-09-18 14:00:00+00:00,0.0
2024-09-18 15:00:00+00:00,0.0
2024-09-18 16:00:00+00:00,0.0
2024-09-18 17:00:00+00:00,0.0
2024-09-18 18:00:00+00:00,0.0
2024-09-18 19:00:00+00:00,0.0
2024-09-19 13:00:00+00:00,0.0
2024-09-19 14:00:00+00:00,0.0
2024-09-19 15:00:00+00:00,0.0
2024-09-19 16:00:00+00:00,0.0
2024-09-19 17:00:00+00:00,0.0
2024-09-19 18:00:00+00:00,0.0
2024-09-19 19:00:00+00:00,0.0
2024-09-20 13:00:00+00:00,0.0
2024-09-20 14:00:00+00:00,0.0
2024-09-20 15:00:00+00:00,0.0
2024-09-20 16:00:00+00:00,0.0
2024-09-20 17:00:00+00:00,0.0
2024-09-20 18:00:00+00:00,0.0
2024-09-20 19:00:00+00:00,0.0
2024-09-23 13:00:00+00:00,0.0
2024-09-23 14:00:00+00:00,0.0
2024-09-23 15:00:00+00:00,0.0
2024-09-23 16:00:00+00:00,0.0
2024-09-23 17:00:00+00:00,0.0
2024-09-23 18:00:00+00:00,0.0
2024-09-23 19:00:00+00:00,0.0
2024-09-24 13:00:00+00:00,0.0
2024-09-24 14:00:00+00:00,0.0
2024-09-24 15:00:00+00:00,0.0
2024-09-24 16:00:00+00:00,0.0
2024-09-24 17:00:00+00:00,0.0
2024-09-24 18:00:00+00:00,0.0
2024-09-24 19:00:00+00:00,0.0
2024-09-25 13:00:00+00:00,0.0
2024-09-25 14:00:00+00:00,0.0
2024-09-25 15:00:00+00:00,0.0
2024-09-25 16:00:00+00:00,0.0
2024-09-25 17:00:00+00:00,0.0
2024-09-25 18:00:00+00:00,0.0
2024-09-25 19:00:00+00:00,0.0
2024-09-26 13:00:00+00:00,0.0
2024-09-26 14:00:00+00:00,0.0
2024-09-26 15:00:00+00:00,0.0
2024-09-26 16:00:00+00:00,0.0
2024-09-26 17:00:00+00:00,0.0
2024-09-26 18:00:00+00:00,0.0
2024-09-26 19:00:00+00:00,0.0
2024-09-27 13:00:00+00:00,0.0
2024-09-27 14:00:00+00:00,0.0
2024-09-27 15:00:00+00:00,0.0
2024-09-27 16:00:00+00:00,0.0
2024-09-27 17:00:00+00:00,0.0
2024-09-27 18:00:00+00:00,0.0
2024-09-27 19:00:00+00:00,0.0
2024-09-30 13:00:00+00:00,0.0
2024-09-30 14:00:00+00:00,0.0
2024-09-30 15:00:00+00:00,0.0
2024-09-30 16:00:00+00:00,0.0
2024-09-30 17:00:00+00:00,0.0
2024-09-30 18:00:00+00:00,0.0
2024-09-30 19:00:00+00:00,0.0
2024-10-01 13:00:00+00:00,0.0
2024-10-01 14:00:00+00:00,0.0
2024-10-01 15:00:00+00:00,0.0
2024-10-01 16:00:00+00:00,0.0
2024-10-01 17:00:00+00:00,0.0
2024-10-01 18:00:00+00:00,0.0
2024-10-01 19:00:00+00:00,0.0
2024-10-02 13:00:00+00:00,0.0
2024-10-02 14:00:00+00:00,0.0
2024-10-02 15:00:00+00:00,0.0
2024-10-02 16:00:00+00:00,0.0
2024-10-02 17:00:00+00:00,0.0
2024-10-02 18:00:00+00:00,0.0
2024-10-02 19:00:00+00:00,0.0
2024-10-03 13:00:00+00:00,0.0
2024-10-03 14:00:00+00:00,0.0
2024-10-03 15:00:00+00:00,0.0
2024-10-03 16:00:00+00:00,0.0
2024-10-03 17:00:00+00:00,0.0
2024-10-03 18:00:00+00:00,0.0
2024-10-03 19:00:00+00:00,0.0
2024-10-04 13:00:00+00:00,0.0
2024-10-04 14:00:00+00:00,0.0
2024-10-04 15:00:00+00:00,0.0
2024-10-04 16:00:00+00:00,0.0
2024-10-04 17:00:00+00:00,0.0
2024-10-04 18:00:00+00:00,0.0
2024-10-04 19:00:00+00:00,0.0
2024-10-07 13:00:00+00:00,0.0
2024-10-07 14:00:00+00:00,0.0
2024-10-07 15:00:00+00:00,0.0
2024-10-07 16:00:00+00:00,0.0
2024-10-07 17:00:00+00:00,0.0
2024-10-07 18:00:00+00:00,0.0
2024-10-07 19:00:00+00:00,0.0
2024-10-08 13:00:00+00:00,0.0
2024-10-08 14:00:00+00:00,0.0
2024-10-08 15:00:00+00:00,0.0
2024-10-08 16:00:00+00:00,0.0
2024-10-08 17:00:00+00:00,0.0
2024-10-08 18:00:00+00:00,0.0
2024-10-08 19:00:00+00:00,0.0
2024-10-09 13:00:00+00:00,0.0
2024-10-09 14:00:00+00:00,0.0
2024-10-09 15:00:00+00:00,0.0
2024-10-09 16:00:00+00:00,0.0
2024-10-09 17:00:00+00:00,0.0
2024-10-09 18:00:00+00:00,0.0
2024-10-09 19:00:00+00:00,0.0
2024-10-10 13:00:00+00:00,0.0
2024-10-10 14:00:00+00:00,0.0
2024-10-10 15:00:00+00:00,0.0
2024-10-10 16:00:00+00:00,0.0
2024-10-10 17:00:00+00:00,0.0
2024-10-10 18:00:00+00:00,0.0
2024-10-10 19:00:00+00:00,0.0
2024-10-11 13:00:00+00:00,0.0
2024-10-11 14:00:00+00:00,0.0
2024-10-11 15:00:00+00:00,0.0
2024-10-11 16:00:00+00:00,0.0
2024-10-11 17:00:00+00:00,0.0
2024-10-11 18:00:00+00:00,0.0
2024-10-11 19:00:00+00:00,0.0
2024-10-14 13:00:00+00:00,0.0
2024-10-14 14:00:00+00:00,0.0
2024-10-14 15:00:00+00:00,0.0
2024-10-14 16:00:00+00:00,0.0
2024-10-14 17:00:00+00:00,0.0
2024-10-14 18:00:00+00:00,0.0
2024-10-14 19:00:00+00:00,0.0
2024-10-15 13:00:00+00:00,0.0
2024-10-15 14:00:00+00:00,0.0
2024-10-15 15:00:00+00:00,0.0
2024-10-15 16:00:00+00:00,0.0
2024-10-15 17:00:00+00:00,0.0
2024-10-15 18:00:00+00:00,0.0
2024-10-15 19:00:00+00:00,0.0
2024-10-16 13:00:00+00:00,0.0
2024-10-16 14:00:00+00:00,0.0
2024-10-16 15:00:00+00:00,0.0
2024-10-16 16:00:00+00:00,0.0
2024-10-16 17:00:00+00:00,0.0
2024-10-16 18:00:00+00:00,0.0
2024-10-16 19:00:00+00:00,0.0
2024-10-17 13:00:00+00:00,0.0
2024-10-17 14:00:00+00:00,0.0
2024-10-17 15:00:00+00:00,0.0
2024-10-17 16:00:00+00:00,0.0
2024-10-17 17:00:00+00:00,0.0
2024-10-17 18:00:00+00:00,0.0
2024-10-17 19:00:00+00:00,0.0
2024-10-18 13:00:00+00:00,0.0
2024-10-18 14:00:00+00:00,0.0
2024-10-18 15:00:00+00:00,0.0
2024-10-18 16:00:00+00:00,0.0
2024-10-18 17:00:00+00:00,0.0
2024-10-18 18:00:00+00:00,0.0
2024-10-18 19:00:00+00:00,0.0
2024-10-21 13:00:00+00:00,0.0
2024-10-21 14:00:00+00:00,0.0
2024-10-21 15:00:00+00:00,0.0
2024-10-21 16:00:00+00:00,0.0
2024-10-21 17:00:00+00:00,0.0
2024-10-21 18:00:00+00:00,0.0
2024-10-21 19:00:00+00:00,0.0
2024-10-22 13:00:00+00:00,0.0
2024-10-22 14:00:00+00:00,0.0
2024-10-22 15:00:00+00:00,0.0
2024-10-22 16:00:00+00:00,0.0
2024-10-22 17:00:00+00:00,0.0
2024-10-22 18:00:00+00:00,0.0
2024-10-22 19:00:00+00:00,0.0
2024-10-23 13:00:00+00:00,0.0
2024-10-23 14:00:00+00:00,0.0
2024-10-23 15:00:00+00:00,0.0
2024-10-23 16:00:00+00:00,0.0
2024-10-23 17:00:00+00:00,0.0
2024-10-23 18:00:00+00:00,0.0
2024-10-23 19:00:00+00:00,0.0
2024-10-24 13:00:00+00:00,0.0
2024-10-24 14:00:00+00:00,0.0
2024-10-24 15:00:00+00:00,0.0
2024-10-24 16:00:00+00:00,0.0
2024-10-24 17:00:00+00:00,0.0
2024-10-24 18:00:00+00:00,0.0
2024-10-24 19:00:00+00:00,0.0
2024-10-25 13:00:00+00:00,0.0
2024-10-25 14:00:00+00:00,0.0
2024-10-25 15:00:00+00:00,0.0
2024-10-25 16:00:00+00:00,0.0
2024-10-25 17:00:00+00:00,0.0
2024-10-25 18:00:00+00:00,0.0
2024-10-25 19:00:00+00:00,0.0
2024-10-28 13:00:00+00:00,0.0
2024-10-28 14:00:00+00:00,0.0
2024-10-28 15:00:00+00:00,0.0
2024-10-28 16:00:00+00:00,0.0
2024-10-28 17:00:00+00:00,0.0
2024-10-28 18:00:00+00:00,0.0
2024-10-28 19:00:00+00:00,0.0
2024-10-29 13:00:00+00:00,0.0
2024-10-29 14:00:00+00:00,0.0
2024-10-29 15:00:00+00:00,0.0
2024-10-29 16:00:00+00:00,0.0
2024-10-29 17:00:00+00:00,0.0
2024-10-29 18:00:00+00:00,0.0
2024-10-29 19:00:00+00:00,0.0
2024-10-30 13:00:00+00:00,0.0
2024-10-30 14:00:00+00:00,0.0
2024-10-30 15:00:00+00:00,0.0
2024-10-30 16:00:00+00:00,0.0
2024-10-30 17:00:00+00:00,0.0
2024-10-30 18:00:00+00:00,0.0
2024-10-30 19:00:00+00:00,0.0
2024-10-31 13:00:00+00:00,0.0
2024-10-31 14:00:00+00:00,27.88184259662069
2024-10-31 15:00:00+00:00,22.860175113841333
2024-10-31 16:00:00+00:00,9.542276980776949
2024-10-31 17:00:00+00:00,9.813127318878946
2024-10-31 18:00:00+00:00,-42.535035187739574
2024-10-31 19:00:00+00:00,-31.542523815481296
2024-11-01 13:00:00+00:00,-67.33845222110637
2024-11-01 14:00:00+00:00,-71.27995019225867
2024-11-01 15:00:00+00:00,-50.07392205796101
2024-11-01 16:00:00+00:00,-57.44268807973814
2024-11-01 17:00:00+00:00,-17.87369234366328
2024-11-01 18:00:00+00:00,-16.503165170795594
2024-11-01 19:00:00+00:00,-21.41684052503131
2024-11-04 14:00:00+00:00,-127.54346956873536
2024-11-04 15:00:00+00:00,-92.46504289519532
2024-11-04 16:00:00+00:00,-128.85794974512197
2024-11-04 17:00:00+00:00,-110.79659586172934
2024-11-04 18:00:00+00:00,-109.19611855073708
2024-11-04 19:00:00+00:00,-132.8139914835799
2024-11-04 20:00:00+00:00,-111.9722242411961
2024-11-05 14:00:00+00:00,-190.1595051009632
2024-11-05 15:00:00+00:00,-186.20401535712858
2024-11-05 16:00:00+00:00,-159.8841171470135
2024-11-05 17:00:00+00:00,-173.18602778888317
2024-11-05 18:00:00+00:00,-171.71934655835045
2024-11-05 19:00:00+00:00,-175.65022686035041
2024-11-05 20:00:00+00:00,-183.27000354348345
2024-11-06 14:00:00+00:00,-33.67644226067617
2024-11-06 15:00:00+00:00,-40.02923303574818
2024-11-06 16:00:00+00:00,-84.27668904879688
2024-11-06 17:00:00+00:00,-100.17240805960856
2024-11-06 18:00:00+00:00,-110.10901369673829
2024-11-06 19:00:00+00:00,-122.6382665117321
2024-11-06 20:00:00+00:00,-143.64462513635158
2024-11-07 14:00:00+00:00,-203.69326802025302
2024-11-07 15:00:00+00:00,-182.28704516437404
2024-11-07 16:00:00+00:00,-176.1908794354297
2024-11-07 17:00:00+00:00,-164.44363344915524
2024-11-07 18:00:00+00:00,-162.44997813588103
2024-11-07 19:00:00+00:00,-190.4033653483332
2024-11-07 20:00:00+00:00,-190.1980246520443
2024-11-08 14:00:00+00:00,249.92522535887065
2024-11-08 15:00:00+00:00,308.5686206211663
2024-11-08 16:00:00+00:00,314.0683073049159
2024-11-08 17:00:00+00:00,340.00564518189975
2024-11-08 18:00:00+00:00,329.9267844129658
2024-11-08 19:00:00+00:00,327.97210557263867
2024-11-08 20:00:00+00:00,320.63486683858173
2024-11-11 14:00:00+00:00,358.277162103446
2024-11-11 15:00:00+00:00,342.2165933107678
2024-11-11 16:00:00+00:00,289.0011033232353
2024-11-11 17:00:00+00:00,301.4328800698017
2024-11-11 18:00:00+00:00,313.28896324906344
2024-11-11 19:00:00+00:00,314.6982042889278
2024-11-11 20:00:00+00:00,303.92464495096414
2024-11-12 14:00:00+00:00,487.6963637827736
2024-11-12 15:00:00+00:00,529.389468749282
2024-11-12 16:00:00+00:00,520.5904011644103
2024-11-12 17:00:00+00:00,525.2648990121667
2024-11-12 18:00:00+00:00,479.55185942558205
2024-11-12 19:00:00+00:00,488.2510536286827
2024-11-12 20:00:00+00:00,501.0161718247081
2024-11-13 14:00:00+00:00,535.8294551315689
2024-11-13 15:00:00+00:00,500.1035310875046
2024-11-13 16:00:00+00:00,441.46572017213265
2024-11-13 17:00:00+00:00,415.1600453516086
2024-11-13 18:00:00+00:00,405.0132766763254
2024-11-13 19:00:00+00:00,405.7325846871904
2024-11-13 20:00:00+00:00,418.4311542886235
2024-11-14 14:00:00+00:00,329.8686948697183
2024-11-14 15:00:00+00:00,323.3816004405627
2024-11-14 16:00:00+00:00,312.8323429735186
2024-11-14 17:00:00+00:00,322.91646868159046
2024-11-14 18:00:00+00:00,297.53014664004024
2024-11-14 19:00:00+00:00,314.62603518211984
2024-11-14 20:00:00+00:00,310.768914915592
2024-11-15 14:00:00+00:00,297.36250667076126
2024-11-15 15:00:00+00:00,318.02372875871737
2024-11-15 16:00:00+00:00,335.63186859483875
2024-11-15 17:00:00+00:00,333.2102580287085
2024-11-15 18:00:00+00:00,324.4217449992017
2024-11-15 19:00:00+00:00,327.05440570041276
2024-11-15 20:00:00+00:00,315.6021181925862
2024-11-18 14:00:00+00:00,257.7609810439884
2024-11-18 15:00:00+00:00,261.55495894419744
2024-11-18 16:00:00+00:00,252.8646354006754
2024-11-18 17:00:00+00:00,239.40327811876415
2024-11-18 18:00:00+00:00,234.90147787942695
2024-11-18 19:00:00+00:00,237.42163103802693
2024-11-18 20:00:00+00:00,239.50990015469625
2024-11-19 14:00:00+00:00,333.0419658532781
2024-11-19 15:00:00+00:00,324.3938492447123
2024-11-19 16:00:00+00:00,323.09163622566484
2024-11-19 17:00:00+00:00,335.0600806549161
2024-11-19 18:00:00+00:00,326.8118540904027
2024-11-19 19:00:00+00:00,311.8148523341466
2024-11-19 20:00:00+00:00,300.09927727711386
2024-11-20 14:00:00+00:00,343.22295462700134
2024-11-20 15:00:00+00:00,366.44434890157476
2024-11-20 16:00:00+00:00,350.2082764925882
2024-11-20 17:00:00+00:00,335.47742359937996
2024-11-20 18:00:00+00:00,333.3574781927088
2024-11-20 19:00:00+00:00,335.9862944779411
2024-11-20 20:00:00+00:00,322.2424377617242
2024-11-21 14:00:00+00:00,282.26131769694115
2024-11-21 15:00:00+00:00,256.99896669905877
2024-11-21 16:00:00+00:00,266.54550065523676
2024-11-21 17:00:00+00:00,233.3499427068541
2024-11-21 18:00:00+00:00,218.8128670396378
2024-11-21 19:00:00+00:00,207.42732761856905
2024-11-21 20:00:00+00:00,192.39459935221691
2024-11-22 14:00:00+00:00,207.68670954039334
2024-11-22 15:00:00+00:00,207.04116156499953
2024-11-22 16:00:00+00:00,189.17624672927684
2024-11-22 17:00:00+00:00,176.99403354143203
2024-11-22 18:00:00+00:00,176.6363757199569
2024-11-22 19:00:00+00:00,167.04400382076275
2024-11-22 20:00:00+00:00,154.41218230608752
2024-11-25 14:00:00+00:00,209.05206492575962
2024-11-25 15:00:00+00:00,245.72048240267156
2024-11-25 16:00:00+00:00,215.13492439989
2024-11-25 17:00:00+00:00,202.13814004520702
2024-11-25 18:00:00+00:00,181.64455792653183
2024-11-25 19:00:00+00:00,165.17661986672414
2024-11-25 20:00:00+00:00,178.68585500761526
2024-11-26 14:00:00+00:00,265.6921682208723
2024-11-26 15:00:00+00:00,279.87262459337484
2024-11-26 16:00:00+00:00,302.5246301437525
2024-11-26 17:00:00+00:00,284.6247881039843
2024-11-26 18:00:00+00:00,308.36827594611447
2024-11-26 19:00:00+00:00,296.3542866436654
2024-11-26 20:00:00+00:00,280.9394974432911
2024-11-27 14:00:00+00:00,260.6985169146351
2024-11-27 15:00:00+00:00,235.47010099627315
2024-11-27 16:00:00+00:00,242.86882918990003
2024-11-27 17:00:00+00:00,243.24552254570332
2024-11-27 18:00:00+00:00,231.2954897638289
2024-11-27 19:00:00+00:00,238.66384417737697
2024-11-27 20:00:00+00:00,244.22747253349505
2024-11-29 14:00:00+00:00,229.3070372270986
2024-11-29 15:00:00+00:00,202.40112768747028
2024-11-29 16:00:00+00:00,217.52471408330706
2024-12-02 14:00:00+00:00,305.85868195492174
2024-12-02 15:00:00+00:00,275.6676395808527
2024-12-02 16:00:00+00:00,265.5172651851297
2024-12-02 17:00:00+00:00,258.6439717711649
2024-12-02 18:00:00+00:00,258.7298887788669
2024-12-02 19:00:00+00:00,244.1358833879946
2024-12-02 20:00:00+00:00,248.12319401454306
2024-12-03 14:00:00+00:00,145.64820318241902
2024-12-03 15:00:00+00:00,147.58918384505523
2024-12-03 16:00:00+00:00,133.3849502281914
2024-12-03 17:00:00+00:00,135.9789902140423
2024-12-03 18:00:00+00:00,133.89072109737114
2024-12-03 19:00:00+00:00,109.43463728614825
2024-12-03 20:00:00+00:00,139.21126631963065
2024-12-04 14:00:00+00:00,111.22284442690417
2024-12-04 15:00:00+00:00,127.19063326544682
2024-12-04 16:00:00+00:00,137.526329640579
2024-12-04 17:00:00+00:00,170.57797323845827
2024-12-04 18:00:00+00:00,168.61628876136874
2024-12-04 19:00:00+00:00,181.41993988187957
2024-12-04 20:00:00+00:00,174.6496615696293
2024-12-05 14:00:00+00:00,239.82942257683368
2024-12-05 15:00:00+00:00,223.08063361971517
2024-12-05 16:00:00+00:00,203.42589805775495
2024-12-05 17:00:00+00:00,198.69965430751313
2024-12-05 18:00:00+00:00,190.29611692866294
2024-12-05 19:00:00+00:00,177.60836448854673
2024-12-05 20:00:00+00:00,180.54923829743305
2024-12-06 14:00:00+00:00,241.10360655236923
2024-12-06 15:00:00+00:00,231.75726731777044
2024-12-06 16:00:00+00:00,248.38261210165848
2024-12-06 17:00:00+00:00,242.2301660016366
2024-12-06 18:00:00+00:00,244.3430104151251
2024-12-06 19:00:00+00:00,233.00650577923807
2024-12-06 20:00:00+00:00,255.85149461031796
2024-12-09 14:00:00+00:00,-160.11573780752417
2024-12-09 15:00:00+00:00,-107.2184181763345
2024-12-09 16:00:00+00:00,-128.88576996361394
2024-12-09 17:00:00+00:00,-92.55289915867593
2024-12-09 18:00:00+00:00,-103.1031067966147
2024-12-09 19:00:00+00:00,-108.32954487772741
2024-12-09 20:00:00+00:00,-107.10795388939302
2024-12-10 14:00:00+00:00,-84.1188512156449
2024-12-10 15:00:00+00:00,-130.33550305360282
2024-12-10 16:00:00+00:00,-114.96300245162257
2024-12-10 17:00:00+00:00,-141.08220654104906
2024-12-10 18:00:00+00:00,-153.52104477502152
2024-12-10 19:00:00+00:00,-155.72501307992124
2024-12-10 20:00:00+00:00,-136.51985169977385
2024-12-11 14:00:00+00:00,-112.8496244940095
2024-12-11 15:00:00+00:00,-133.3187471243209
2024-12-11 16:00:00+00:00,-120.72064345540616
2024-12-11 17:00:00+00:00,-154.4547708970585
2024-12-11 18:00:00+00:00,-157.97479404021684
2024-12-11 19:00:00+00:00,-186.4111765292764
2024-12-11 20:00:00+00:00,-174.8605195441418
2024-12-12 14:00:00+00:00,-149.8830450459106
2024-12-12 15:00:00+00:00,-158.83836584722033
2024-12-12 16:00:00+00:00,-182.91886914928347
2024-12-12 17:00:00+00:00,-172.54058426881463
2024-12-12 18:00:00+00:00,-168.5883507997823
2024-12-12 19:00:00+00:00,-175.00428394117557
2024-12-12 20:00:00+00:00,-150.20086690780786
2024-12-13 14:00:00+00:00,-48.915727844741866
2024-12-13 15:00:00+00:00,-94.4847665037235
2024-12-13 16:00:00+00:00,-103.42286998400515
2024-12-13 17:00:00+00:00,-111.57577659070783
2024-12-13 18:00:00+00:00,-93.83744639456587
2024-12-13 19:00:00+00:00,-115.09236619769754
2024-12-13 20:00:00+00:00,-99.14054407717404
2024-12-16 14:00:00+00:00,53.429072627362444
2024-12-16 15:00:00+00:00,86.2454443461449
2024-12-16 16:00:00+00:00,84.54334128304473
2024-12-16 17:00:00+00:00,94.18088332217948
2024-12-16 18:00:00+00:00,107.2726309258945
2024-12-16 19:00:00+00:00,107.20262656433442
2024-12-16 20:00:00+00:00,127.69570928390237
2024-12-17 14:00:00+00:00,63.23878034456604
2024-12-17 15:00:00+00:00,73.97877179024098
2024-12-17 16:00:00+00:00,99.3101937887109
2024-12-17 17:00:00+00:00,72.67310300422608
2024-12-17 18:00:00+00:00,62.85622001143575
2024-12-17 19:00:00+00:00,61.94718499467091
2024-12-17 20:00:00+00:00,65.15890723927834
2024-12-18 14:00:00+00:00,33.34344035066885
2024-12-18 15:00:00+00:00,34.86979529484397
2024-12-18 16:00:00+00:00,13.307263371882623
2024-12-18 17:00:00+00:00,23.575114003260794
2024-12-18 18:00:00+00:00,63.102227388412956
2024-12-18 19:00:00+00:00,95.69033917681135
2024-12-18 20:00:00+00:00,139.19379607372298
2024-12-19 14:00:00+00:00,129.77009108321528
2024-12-19 15:00:00+00:00,141.60508887764362
2024-12-19 16:00:00+00:00,122.41732549845419
2024-12-19 17:00:00+00:00,138.3233622714764
2024-12-19 18:00:00+00:00,110.89473372212484
2024-12-19 19:00:00+00:00,133.8064706399628
2024-12-19 20:00:00+00:00,144.07967400135516
2024-12-20 14:00:00+00:00,153.6158219052894
2024-12-20 15:00:00+00:00,118.63742103436617
2024-12-20 16:00:00+00:00,111.8984642057213
2024-12-20 17:00:00+00:00,100.83219279799341
2024-12-20 18:00:00+00:00,102.13801153747917
2024-12-20 19:00:00+00:00,116.7315175292446
2024-12-20 20:00:00+00:00,109.85926401925106
2024-12-23 14:00:00+00:00,136.92307968206697
2024-12-23 15:00:00+00:00,121.97147284553392
2024-12-23 16:00:00+00:00,102.50457143359307
2024-12-23 17:00:00+00:00,81.9588140633883
2024-12-23 18:00:00+00:00,100.71465976050317
2024-12-23 19:00:00+00:00,99.38947165671696
2024-12-23 20:00:00+00:00,86.11225212011942
2024-12-24 14:00:00+00:00,71.05626062562183
2024-12-24 15:00:00+00:00,85.16813994583782
2024-12-24 16:00:00+00:00,85.99628514969105
2024-12-26 14:00:00+00:00,80.95291883454347
2024-12-26 15:00:00+00:00,29.11014562672485
2024-12-26 16:00:00+00:00,35.659525402940446
2024-12-26 17:00:00+00:00,56.53516845563868
2024-12-26 18:00:00+00:00,72.93440466380653
2024-12-26 19:00:00+00:00,79.96411979733267
2024-12-26 20:00:00+00:00,70.21653310930776
2024-12-27 14:00:00+00:00,34.22351630343466
2024-12-27 15:00:00+00:00,14.947851162620598
2024-12-27 16:00:00+00:00,54.21162745987192
2024-12-27 17:00:00+00:00,40.65675676151679
2024-12-27 18:00:00+00:00,38.75092858758504
2024-12-27 19:00:00+00:00,35.222963998839376
2024-12-27 20:00:00+00:00,42.00480483019304
2024-12-30 14:00:00+00:00,41.315458991177806
2024-12-30 15:00:00+00:00,26.916295591871155
2024-12-30 16:00:00+00:00,8.316015506430212
2024-12-30 17:00:00+00:00,9.964171446823489
2024-12-30 18:00:00+00:00,2.010903360758946
2024-12-30 19:00:00+00:00,-8.44610709224947
2024-12-30 20:00:00+00:00,11.438214071705879
2024-12-31 14:00:00+00:00,-75.46024409950928
2024-12-31 15:00:00+00:00,-63.41803963478744
2024-12-31 16:00:00+00:00,-46.06398579230942
2024-12-31 17:00:00+00:00,-58.093588785146636
2024-12-31 18:00:00+00:00,-53.13126223638227
2024-12-31 19:00:00+00:00,-74.21085568457164
2024-12-31 20:00:00+00:00,-74.14395764434234
2025-01-02 14:00:00+00:00,-104.5316251848453
2025-01-02 15:00:00+00:00,-102.08525522340761
2025-01-02 16:00:00+00:00,-121.62801312603176
2025-01-02 17:00:00+00:00,-114.76247165780859
2025-01-02 18:00:00+00:00,-99.7057833021999
2025-01-02 19:00:00+00:00,-125.58660919119845
2025-01-02 20:00:00+00:00,-129.74604933052427
2025-01-03 14:00:00+00:00,-233.72992832813753
2025-01-03 15:00:00+00:00,-208.14015529020588
2025-01-03 16:00:00+00:00,-243.0308043529759
2025-01-03 17:00:00+00:00,-241.93266682128873
2025-01-03 18:00:00+00:00,-219.05890662699207
2025-01-03 19:00:00+00:00,-232.5436822795185
2025-01-03 20:00:00+00:00,-231.76073250322713
2025-01-06 14:00:00+00:00,-379.9263182253477
2025-01-06 15:00:00+00:00,-375.28594827558453
2025-01-06 16:00:00+00:00,-382.8248351458044
2025-01-06 17:00:00+00:00,-352.666705688879
2025-01-06 18:00:00+00:00,-378.18511454862124
2025-01-06 19:00:00+00:00,-367.78222022631553
2025-01-06 20:00:00+00:00,-381.13695547229594
2025-01-07 14:00:00+00:00,-500.13823501598335
2025-01-07 15:00:00+00:00,-478.5156737217255
2025-01-07 16:00:00+00:00,-574.269305218329
2025-01-07 17:00:00+00:00,-563.6626104540052
2025-01-07 18:00:00+00:00,-552.9960791368584
2025-01-07 19:00:00+00:00,-528.3961130998749
2025-01-07 20:00:00+00:00,-573.4302745631252
2025-01-08 14:00:00+00:00,-389.8132055796992
2025-01-08 15:00:00+00:00,-380.84567100432173
2025-01-08 16:00:00+00:00,-361.66822538734226
2025-01-08 17:00:00+00:00,-338.73279958387053
2025-01-08 18:00:00+00:00,-352.61234942531047
2025-01-08 19:00:00+00:00,-358.720140137578
2025-01-08 20:00:00+00:00,-362.7739993587188
2025-01-10 14:00:00+00:00,-424.40187084190575
2025-01-10 15:00:00+00:00,-340.48311931100346
2025-01-10 16:00:00+00:00,-384.099019121342
2025-01-10 17:00:00+00:00,-402.58847821106025
2025-01-10 18:00:00+00:00,-379.2417740916538
2025-01-10 19:00:00+00:00,-365.216382029338
2025-01-10 20:00:00+00:00,-353.7534768523591
2025-01-13 14:00:00+00:00,-353.1851313060018
2025-01-13 15:00:00+00:00,-320.0423979617277
2025-01-13 16:00:00+00:00,-235.0882945566803
2025-01-13 17:00:00+00:00,-243.1540738462058
2025-01-13 18:00:00+00:00,-246.6196753291506
2025-01-13 19:00:00+00:00,-254.84645557499394
2025-01-13 20:00:00+00:00,-275.08545230091704
2025-01-14 14:00:00+00:00,-129.3497061353623
2025-01-14 15:00:00+00:00,-143.12192891851575
2025-01-14 16:00:00+00:00,-193.518724710255
2025-01-14 17:00:00+00:00,-203.588127629628
2025-01-14 18:00:00+00:00,-230.45910996521263
2025-01-14 19:00:00+00:00,-239.06839374235088
2025-01-14 20:00:00+00:00,-213.07512493992607
2025-01-15 14:00:00+00:00,-254.38170714408724
2025-01-15 15:00:00+00:00,-215.04432076483653
2025-01-15 16:00:00+00:00,-195.08081905023428
2025-01-15 17:00:00+00:00,-212.41845989627151
2025-01-15 18:00:00+00:00,-245.33320109236257
2025-01-15 19:00:00+00:00,-239.76676632185422
2025-01-15 20:00:00+00:00,-244.60357531928733
2025-01-16 14:00:00+00:00,-297.6254326735392
2025-01-16 15:00:00+00:00,-293.23462628249854
2025-01-16 16:00:00+00:00,-318.5331965158936
2025-01-16 17:00:00+00:00,-346.35174679272546
2025-01-16 18:00:00+00:00,-368.50549282174336
2025-01-16 19:00:00+00:00,-373.99947443645203
2025-01-16 20:00:00+00:00,-348.92455144027167
2025-01-17 14:00:00+00:00,-449.67954180923005
2025-01-17 15:00:00+00:00,-364.78838127833603
2025-01-17 16:00:00+00:00,-356.3792734308377
2025-01-17 17:00:00+00:00,-346.6479714312925
2025-01-17 18:00:00+00:00,-344.0809621110335
2025-01-17 19:00:00+00:00,-341.6554459175213
2025-01-17 20:00:00+00:00,-347.9031551735177
2025-01-21 14:00:00+00:00,-306.919328874408
2025-01-21 15:00:00+00:00,-320.2215072984759
2025-01-21 16:00:00+00:00,-340.78163801174344
2025-01-21 17:00:00+00:00,-340.6165204476801
2025-01-21 18:00:00+00:00,-332.0211601531892
2025-01-21 19:00:00+00:00,-325.61365515295483
2025-01-21 20:00:00+00:00,-324.60870796907767
2025-01-22 14:00:00+00:00,-304.1958978345871
2025-01-22 15:00:00+00:00,-295.58270843006596
2025-01-22 16:00:00+00:00,-298.65377259897195
2025-01-22 17:00:00+00:00,-307.53325545925225
2025-01-22 18:00:00+00:00,-302.70395780964003
2025-01-22 19:00:00+00:00,-287.244344476101
2025-01-22 20:00:00+00:00,-258.1401901511113
2025-01-23 14:00:00+00:00,-330.3819999642428
2025-01-23 15:00:00+00:00,-311.75557018269797
2025-01-23 16:00:00+00:00,-320.3545361976278
2025-01-23 17:00:00+00:00,-330.13994775334123
2025-01-23 18:00:00+00:00,-359.4007197723429
2025-01-23 19:00:00+00:00,-365.56263003387517
2025-01-23 20:00:00+00:00,-353.38157035367175
2025-01-24 14:00:00+00:00,-345.68465953153594
2025-01-24 15:00:00+00:00,-351.44753334971426
2025-01-24 16:00:00+00:00,-373.96624221874083
2025-01-24 17:00:00+00:00,-364.5498986225816
2025-01-24 18:00:00+00:00,-395.04583566693
2025-01-24 19:00:00+00:00,-408.9397007142867
2025-01-24 20:00:00+00:00,-388.1771878773751
2025-01-27 14:00:00+00:00,-335.5135491966177
2025-01-27 15:00:00+00:00,-301.50034588480736
2025-01-27 16:00:00+00:00,-318.7264247869066
2025-01-27 17:00:00+00:00,-360.818563689583
2025-01-27 18:00:00+00:00,-382.3459591858226
2025-01-27 19:00:00+00:00,-382.40730211048435
2025-01-27 20:00:00+00:00,-381.6284574537395
2025-01-28 14:00:00+00:00,-346.0464477601795
2025-01-28 15:00:00+00:00,-351.13369972982633
2025-01-28 16:00:00+00:00,-320.44487445879383
2025-01-28 17:00:00+00:00,-301.93900047025164
2025-01-28 18:00:00+00:00,-300.57453408419497
2025-01-28 19:00:00+00:00,-327.89882647225903
2025-01-28 20:00:00+00:00,-339.8971079814896
2025-01-29 14:00:00+00:00,-302.4816940384405
2025-01-29 15:00:00+00:00,-301.7319437534303
2025-01-29 16:00:00+00:00,-299.90305655858435
2025-01-29 17:00:00+00:00,-327.07245313958344
2025-01-29 18:00:00+00:00,-307.76481716258434
2025-01-29 19:00:00+00:00,-328.8024714580154
2025-01-29 20:00:00+00:00,-330.0138263475773
2025-01-30 14:00:00+00:00,-424.6773348641849
2025-01-30 15:00:00+00:00,-413.5919566981061
2025-01-30 16:00:00+00:00,-404.84209650870326
2025-01-30 17:00:00+00:00,-435.98768664799184
2025-01-30 18:00:00+00:00,-461.85076509039607
2025-01-30 19:00:00+00:00,-457.923490508835
2025-01-30 20:00:00+00:00,-467.1545121255832
2025-01-31 14:00:00+00:00,-464.33252548969523
2025-01-31 15:00:00+00:00,-490.3748632223191
2025-01-31 16:00:00+00:00,-465.02036206348333
2025-01-31 17:00:00+00:00,-473.6229337988519
2025-01-31 18:00:00+00:00,-399.4791261079825
2025-01-31 19:00:00+00:00,-415.5117475205848
2025-01-31 20:00:00+00:00,-402.3567075970782
2025-02-03 14:00:00+00:00,-292.9670228007142
2025-02-03 15:00:00+00:00,-438.53895200974426
2025-02-03 16:00:00+00:00,-347.4606176669479
2025-02-03 17:00:00+00:00,-324.84188641386777
2025-02-03 18:00:00+00:00,-358.7830147216975
2025-02-03 19:00:00+00:00,-317.5082534002486
2025-02-03 20:00:00+00:00,-339.6373899874315
2025-02-04 14:00:00+00:00,-464.60152229318254
2025-02-04 15:00:00+00:00,-465.60614177608863
2025-02-04 16:00:00+00:00,-455.0701007259036
2025-02-04 17:00:00+00:00,-465.34345404076936
2025-02-04 18:00:00+00:00,-488.3847319660461
2025-02-04 19:00:00+00:00,-476.8726079053985
2025-02-04 20:00:00+00:00,-504.8208491431416
2025-02-05 14:00:00+00:00,-530.5548859772133
2025-02-05 15:00:00+00:00,-529.0385547539374
2025-02-05 16:00:00+00:00,-510.39118954103094
2025-02-05 17:00:00+00:00,-520.3449749356116
2025-02-05 18:00:00+00:00,-532.5167204077737
2025-02-05 19:00:00+00:00,-542.5970904419363
2025-02-05 20:00:00+00:00,-528.9826238284962
2025-02-06 14:00:00+00:00,-645.0292249865236
2025-02-06 15:00:00+00:00,-625.0060366725702
2025-02-06 16:00:00+00:00,-576.4032008716332
2025-02-06 17:00:00+00:00,-593.7483530654922
2025-02-06 18:00:00+00:00,-594.8711568408504
2025-02-06 19:00:00+00:00,-606.116687538797
2025-02-06 20:00:00+00:00,-620.7697301764402
2025-02-07 14:00:00+00:00,-702.1858313748297
2025-02-07 15:00:00+00:00,-669.0051461686171
2025-02-07 16:00:00+00:00,-692.4986393429516
2025-02-07 17:00:00+00:00,-716.3863093177835
2025-02-07 18:00:00+00:00,-727.1263007634582
2025-02-07 19:00:00+00:00,-719.1562840290155
2025-02-07 20:00:00+00:00,-704.4289819567919
2025-02-10 14:00:00+00:00,-1188.443356937453
2025-02-10 15:00:00+00:00,-1231.7057108829847
2025-02-10 16:00:00+00:00,-1260.6959839119013
2025-02-10 17:00:00+00:00,-1285.9551044274751
2025-02-10 18:00:00+00:00,-1260.622523783373
2025-02-10 19:00:00+00:00,-1209.756835237808
2025-02-10 20:00:00+00:00,-1187.2677968480207
2025-02-11 14:00:00+00:00,-1143.294213928587
2025-02-11 15:00:00+00:00,-1156.2389408604681
2025-02-11 16:00:00+00:00,-1161.9839855686153
2025-02-11 17:00:00+00:00,-1231.94499818603
2025-02-11 18:00:00+00:00,-1198.1941773613555
2025-02-11 19:00:00+00:00,-1170.256553792764
2025-02-11 20:00:00+00:00,-1184.7835111899356
2025-02-12 14:00:00+00:00,-1230.0000382647358
2025-02-12 15:00:00+00:00,-1288.6238574074257
2025-02-12 16:00:00+00:00,-1302.6768969428736
2025-02-12 17:00:00+00:00,-1271.084804798086
2025-02-12 18:00:00+00:00,-1286.426564979006
2025-02-12 19:00:00+00:00,-1261.296718030114
2025-02-12 20:00:00+00:00,-1292.259093713108
2025-02-13 14:00:00+00:00,-1336.5140610739775
2025-02-13 15:00:00+00:00,-1351.897228883804
2025-02-13 16:00:00+00:00,-1404.8492318299666
2025-02-13 17:00:00+00:00,-1357.766693991159
2025-02-13 18:00:00+00:00,-1338.8689235533498
2025-02-13 19:00:00+00:00,-1279.045166496301
2025-02-13 20:00:00+00:00,-1236.5528376426273
2025-02-14 14:00:00+00:00,-1391.13370715356
2025-02-14 15:00:00+00:00,-1406.3067769414
2025-02-14 16:00:00+00:00,-1385.2437492966942
2025-02-14 17:00:00+00:00,-1386.247716573449
2025-02-14 18:00:00+00:00,-1362.4726704545567
2025-02-14 19:00:00+00:00,-1380.5756635837643
2025-02-14 20:00:00+00:00,-1364.1886970003056
2025-02-18 14:00:00+00:00,-1380.9970567483215
2025-02-18 15:00:00+00:00,-1344.604149898395
2025-02-18 16:00:00+00:00,-1337.6130908788405
2025-02-18 17:00:00+00:00,-1338.2899603378398
2025-02-18 18:00:00+00:00,-1334.5591248039489
2025-02-18 19:00:00+00:00,-1314.8591101307175
2025-02-18 20:00:00+00:00,-1407.885636577027
2025-02-19 14:00:00+00:00,-1321.0538314557307
2025-02-19 15:00:00+00:00,-1269.4604035631294
2025-02-19 16:00:00+00:00,-1196.2705946996768
2025-02-19 17:00:00+00:00,-1203.4430662664963
2025-02-19 18:00:00+00:00,-1187.5206126922722
2025-02-19 19:00:00+00:00,-1149.7909552194549
2025-02-19 20:00:00+00:00,-1140.560433001814
2025-02-20 14:00:00+00:00,-1190.7571840254436
2025-02-20 15:00:00+00:00,-1182.972789177354
2025-02-20 16:00:00+00:00,-1175.0405743513786
2025-02-20 17:00:00+00:00,-1156.6453796194185
2025-02-20 18:00:00+00:00,-1136.2975112929048
2025-02-20 19:00:00+00:00,-1154.483350467277
2025-02-20 20:00:00+00:00,-1147.3486087141275
2025-02-21 14:00:00+00:00,-999.7621723262799
2025-02-21 15:00:00+00:00,-976.3241106782795
2025-02-21 16:00:00+00:00,-1009.1855278711516
2025-02-21 17:00:00+00:00,-979.1632409063287
2025-02-21 18:00:00+00:00,-986.2389454127059
2025-02-21 19:00:00+00:00,-986.9623585431174
2025-02-21 20:00:00+00:00,-999.0672059750511
2025-02-24 14:00:00+00:00,-954.3357138302342
2025-02-24 15:00:00+00:00,-992.8132840763919
2025-02-24 16:00:00+00:00,-959.8115683701694
2025-02-24 17:00:00+00:00,-983.2207058479096
2025-02-24 18:00:00+00:00,-948.6566861928292
2025-02-24 19:00:00+00:00,-944.4027822035786
2025-02-24 20:00:00+00:00,-947.6738911405935
2025-02-25 14:00:00+00:00,-874.5295588603033
2025-02-25 15:00:00+00:00,-833.9119619816156
2025-02-25 16:00:00+00:00,-843.0477204423888
2025-02-25 17:00:00+00:00,-854.62919951202
2025-02-25 18:00:00+00:00,-875.5312453179099
2025-02-25 19:00:00+00:00,-885.0593872678246
2025-02-25 20:00:00+00:00,-861.0487383738509
2025-02-26 14:00:00+00:00,-717.1242819100203
2025-02-26 15:00:00+00:00,-747.0412195735671
2025-02-26 16:00:00+00:00,-774.7406965586391
2025-02-26 17:00:00+00:00,-769.0616006311992
2025-02-26 18:00:00+00:00,-751.6452953240929
2025-02-26 19:00:00+00:00,-742.577084256128
2025-02-26 20:00:00+00:00,-746.1321845568025
2025-02-27 14:00:00+00:00,-828.1873211809786
2025-02-27 15:00:00+00:00,-845.5672010867178
2025-02-27 16:00:00+00:00,-882.7143431515537
2025-02-27 17:00:00+00:00,-917.7007547694063
2025-02-27 18:00:00+00:00,-886.8357497655038
2025-02-27 19:00:00+00:00,-854.7101709883689
2025-02-27 20:00:00+00:00,-849.8666499491654
2025-02-28 14:00:00+00:00,-933.4461851095973
2025-02-28 15:00:00+00:00,-969.427306597999
2025-02-28 16:00:00+00:00,-955.2196172141677
2025-02-28 17:00:00+00:00,-903.5597090170074
2025-02-28 18:00:00+00:00,-892.7174515043874
2025-02-28 19:00:00+00:00,-941.2315787559016
2025-02-28 20:00:00+00:00,-918.7282592234975
2025-03-03 14:00:00+00:00,-1010.118895129066
2025-03-03 15:00:00+00:00,-957.7956098464823
2025-03-03 16:00:00+00:00,-945.5604903910918
2025-03-03 17:00:00+00:00,-779.6892763250307
2025-03-03 18:00:00+00:00,-777.4649647192189
2025-03-03 19:00:00+00:00,-687.4554001893864
2025-03-03 20:00:00+00:00,-704.8605884282334
2025-03-04 14:00:00+00:00,-534.3976422335355
2025-03-04 15:00:00+00:00,-510.657760111845
2025-03-04 16:00:00+00:00,-565.7366333891962
2025-03-04 17:00:00+00:00,-579.1545110014943
2025-03-04 18:00:00+00:00,-608.4681076246045
2025-03-04 19:00:00+00:00,-636.6656125141277
2025-03-04 20:00:00+00:00,-574.9006070122437
2025-03-05 14:00:00+00:00,-610.3422719104474
2025-03-05 15:00:00+00:00,-633.5981179003704
2025-03-05 16:00:00+00:00,-650.136128611773
2025-03-05 17:00:00+00:00,-692.944968603092
2025-03-05 18:00:00+00:00,-713.8102938935804
2025-03-05 19:00:00+00:00,-720.1842878822147
2025-03-05 20:00:00+00:00,-694.8225752825017
2025-03-06 14:00:00+00:00,-601.2205052223579
2025-03-06 15:00:00+00:00,-652.2734666586426
2025-03-06 16:00:00+00:00,-621.7419530576707
2025-03-06 17:00:00+00:00,-629.175608455344
2025-03-06 18:00:00+00:00,-651.4208619664256
2025-03-06 19:00:00+00:00,-664.3155211698938
2025-03-06 20:00:00+00:00,-640.0948591912378
2025-03-07 14:00:00+00:00,-711.5220161740924
2025-03-07 15:00:00+00:00,-674.399415261057
2025-03-07 16:00:00+00:00,-677.2665290344721
2025-03-07 17:00:00+00:00,-696.9985145438883
2025-03-07 18:00:00+00:00,-701.080438973833
2025-03-07 19:00:00+00:00,-666.6147887960587
2025-03-07 20:00:00+00:00,-676.4347781101804
2025-03-10 13:00:00+00:00,-724.4031013405466
2025-03-10 14:00:00+00:00,-757.0233017938589
2025-03-10 15:00:00+00:00,-689.8281145706782
2025-03-10 16:00:00+00:00,-698.0448696981134
2025-03-10 17:00:00+00:00,-662.3608848068077
2025-03-10 18:00:00+00:00,-649.2658809282879
2025-03-10 19:00:00+00:00,-700.3150866906631
2025-03-11 13:00:00+00:00,-657.3834177336744
2025-03-11 14:00:00+00:00,-648.3454426105677
2025-03-11 15:00:00+00:00,-634.3457455288348
2025-03-11 16:00:00+00:00,-609.9002793867635
2025-03-11 17:00:00+00:00,-622.6967190663955
2025-03-11 18:00:00+00:00,-685.4723170471188
2025-03-11 19:00:00+00:00,-671.6053305070973
2025-03-12 13:00:00+00:00,-665.3441288775252
2025-03-12 14:00:00+00:00,-723.9117854778659
2025-03-12 15:00:00+00:00,-745.4232688929533
2025-03-12 16:00:00+00:00,-745.7492881514382
2025-03-12 17:00:00+00:00,-773.8308260705332
2025-03-12 18:00:00+00:00,-764.2847915134626
2025-03-12 19:00:00+00:00,-729.9310848500077
2025-03-13 13:00:00+00:00,-806.1774667105757
2025-03-13 14:00:00+00:00,-802.2921312817726
2025-03-13 15:00:00+00:00,-820.7600872509889
2025-03-13 16:00:00+00:00,-821.9504384191545
2025-03-13 17:00:00+00:00,-821.6582368164017
2025-03-13 18:00:00+00:00,-831.5911684430578
2025-03-13 19:00:00+00:00,-837.336513058148
2025-03-14 13:00:00+00:00,-986.4988173151519
2025-03-14 14:00:00+00:00,-994.205996360803
2025-03-14 15:00:00+00:00,-1021.7333438330968
2025-03-14 16:00:00+00:00,-1032.9464042957525
2025-03-14 17:00:00+00:00,-1040.9949355377921
2025-03-14 18:00:00+00:00,-1041.1249759443403
2025-03-14 19:00:00+00:00,-1053.8194404262267
2025-03-17 13:00:00+00:00,-1079.2832781771579
2025-03-17 14:00:00+00:00,-1119.2730745270449
2025-03-17 15:00:00+00:00,-1127.9081742507317
2025-03-17 16:00:00+00:00,-1142.0059398524838
2025-03-17 17:00:00+00:00,-1140.6438707797715
2025-03-17 18:00:00+00:00,-1134.7939440447121
2025-03-17 19:00:00+00:00,-1151.748825065455
2025-03-18 13:00:00+00:00,-1190.405586311797
2025-03-18 14:00:00+00:00,-1242.2383912030414
2025-03-18 15:00:00+00:00,-1258.5554350883758
2025-03-18 16:00:00+00:00,-1260.4608391943889
2025-03-18 17:00:00+00:00,-1266.9996013014509
2025-03-18 18:00:00+00:00,-1288.114771306264
2025-03-18 19:00:00+00:00,-1289.4231969679743
2025-03-19 13:00:00+00:00,-1246.818519303702
2025-03-19 14:00:00+00:00,-1279.104367069948
2025-03-19 15:00:00+00:00,-1274.5284381916615
2025-03-19 16:00:00+00:00,-1286.9599150312852
2025-03-19 17:00:00+00:00,-1295.3440451993727
2025-03-19 18:00:00+00:00,-1316.9368887398196
2025-03-19 19:00:00+00:00,-1358.0470318963114
2025-03-20 13:00:00+00:00,-1341.6871317234409
2025-03-20 14:00:00+00:00,-1363.3637036159325
2025-03-20 15:00:00+00:00,-1410.6049397054135
2025-03-20 16:00:00+00:00,-1398.8831520057179
2025-03-20 17:00:00+00:00,-1430.0075389314445
2025-03-20 18:00:00+00:00,-1448.7950628209442
2025-03-20 19:00:00+00:00,-1399.6228143854005
2025-03-21 13:00:00+00:00,-1379.8073321408476
2025-03-21 14:00:00+00:00,-1356.919555312266
2025-03-21 15:00:00+00:00,-1385.2231405190817
2025-03-21 16:00:00+00:00,-1363.8587068624893
2025-03-21 17:00:00+00:00,-1352.5609192495747
2025-03-21 18:00:00+00:00,-1360.12065988772
2025-03-21 19:00:00+00:00,-1329.5049185355972
2025-03-24 13:00:00+00:00,-1227.5107758504735
2025-03-24 14:00:00+00:00,-1212.4575774068499
2025-03-24 15:00:00+00:00,-1189.2853110690949
2025-03-24 16:00:00+00:00,-1156.452024101193
2025-03-24 17:00:00+00:00,-1137.1448875233011
2025-03-24 18:00:00+00:00,-1155.7958584566466
2025-03-24 19:00:00+00:00,-1155.7258540950859
2025-03-25 13:00:00+00:00,-1324.4092136420452
2025-03-25 14:00:00+00:00,-1231.7966506759087
2025-03-25 15:00:00+00:00,-1229.3016295199434
2025-03-25 16:00:00+00:00,-1217.252179469326
2025-03-25 17:00:00+00:00,-1199.1722542740902
2025-03-25 18:00:00+00:00,-1211.0464435111044
2025-03-25 19:00:00+00:00,-1217.4341614902226
2025-03-26 13:00:00+00:00,-1264.4832497703426
2025-03-26 14:00:00+00:00,-1266.5150885624644
2025-03-26 15:00:00+00:00,-1252.64860142155
2025-03-26 16:00:00+00:00,-1202.3072371561452
2025-03-26 17:00:00+00:00,-1208.270955048482
2025-03-26 18:00:00+00:00,-1196.9832857056122
2025-03-26 19:00:00+00:00,-1214.096272341706
2025-03-27 13:00:00+00:00,-1265.0373719271086
2025-03-27 14:00:00+00:00,-1313.9358155590726
2025-03-27 15:00:00+00:00,-1318.066890582653
2025-03-27 16:00:00+00:00,-1287.8480146166887
2025-03-27 17:00:00+00:00,-1276.1325895131274
2025-03-27 18:00:00+00:00,-1283.390160231947
2025-03-27 19:00:00+00:00,-1267.8802578290688
2025-03-28 13:00:00+00:00,-1165.258477942018
2025-03-28 14:00:00+00:00,-1173.551634172166
2025-03-28 15:00:00+00:00,-1142.686301953426
2025-03-28 16:00:00+00:00,-1105.3673234456326
2025-03-28 17:00:00+00:00,-1111.7696825500127
2025-03-28 18:00:00+00:00,-1126.102957775209
2025-03-28 19:00:00+00:00,-1125.3841491634519
2025-03-31 13:00:00+00:00,-1074.4185084262488
2025-03-31 14:00:00+00:00,-1069.1766012474593
2025-03-31 15:00:00+00:00,-1041.7141980505126
2025-03-31 16:00:00+00:00,-1029.5850410836865
2025-03-31 17:00:00+00:00,-1041.6233399210269
2025-03-31 18:00:00+00:00,-1069.5944813383408
2025-03-31 19:00:00+00:00,-1067.4237753962207
2025-04-01 13:00:00+00:00,-979.9214767854613
2025-04-01 14:00:00+00:00,-1023.298998395371
2025-04-01 15:00:00+00:00,-1018.339045131649
2025-04-01 16:00:00+00:00,-1011.5197815729118
2025-04-01 17:00:00+00:00,-1002.9736401620916
2025-04-01 18:00:00+00:00,-1028.4019013563989
2025-04-01 19:00:00+00:00,-1055.034006092447
2025-04-02 13:00:00+00:00,-1013.1764640872257
2025-04-02 14:00:00+00:00,-1008.1539771690641
2025-04-02 15:00:00+00:00,-1024.5163343106874
2025-04-02 16:00:00+00:00,-1030.208854321668
2025-04-02 17:00:00+00:00,-1010.5789939634687
2025-04-02 18:00:00+00:00,-1027.7949545955232
2025-04-02 19:00:00+00:00,-1037.021571185782
2025-04-03 13:00:00+00:00,-720.8053763692463
2025-04-03 14:00:00+00:00,-585.5318770733871
2025-04-03 15:00:00+00:00,-628.3967637986007
2025-04-03 16:00:00+00:00,-597.5975712961796
2025-04-03 17:00:00+00:00,-624.5096823114138
2025-04-03 18:00:00+00:00,-621.7351727258672
2025-04-03 19:00:00+00:00,-599.6834018945956
2025-04-04 13:00:00+00:00,-47.82059424877639
2025-04-04 14:00:00+00:00,-71.68004906133493
2025-04-04 15:00:00+00:00,-5.513469545785412
2025-04-04 16:00:00+00:00,21.718719955896212
2025-04-04 17:00:00+00:00,-8.633684308327304
2025-04-04 18:00:00+00:00,-52.6919127145834
2025-04-04 19:00:00+00:00,-4.643117406977133
2025-04-07 13:00:00+00:00,300.377160539065
2025-04-07 14:00:00+00:00,428.09030398921686
2025-04-07 15:00:00+00:00,338.34198009207245
2025-04-07 16:00:00+00:00,245.93712319533847
2025-04-07 17:00:00+00:00,240.07572994638164
2025-04-07 18:00:00+00:00,284.4704744134656
2025-04-07 19:00:00+00:00,284.7162140082417
2025-04-08 13:00:00+00:00,208.04541432522103
2025-04-08 14:00:00+00:00,298.49586647577985
2025-04-08 15:00:00+00:00,311.6680861567379
2025-04-08 16:00:00+00:00,373.7033590317978
2025-04-08 17:00:00+00:00,382.63769411589436
2025-04-08 18:00:00+00:00,455.57813887219197
2025-04-08 19:00:00+00:00,479.4458530804975
2025-04-09 13:00:00+00:00,709.2864358971245
2025-04-09 14:00:00+00:00,686.3851666949674
2025-04-09 15:00:00+00:00,648.3963331044413
2025-04-09 16:00:00+00:00,373.66432270825635
2025-04-09 17:00:00+00:00,192.82350395022397
2025-04-09 18:00:00+00:00,166.8579509109656
2025-04-09 19:00:00+00:00,197.09139971215635
2025-04-10 13:00:00+00:00,301.3389043514837
2025-04-10 14:00:00+00:00,375.57057965896286
2025-04-10 15:00:00+00:00,492.9023319073141
2025-04-10 16:00:00+00:00,414.29380783646076
2025-04-10 17:00:00+00:00,371.36219568130707
2025-04-10 18:00:00+00:00,405.77538218880716
2025-04-10 19:00:00+00:00,447.692516874284
2025-04-11 13:00:00+00:00,490.81356339153626
2025-04-11 14:00:00+00:00,531.8044833027961
2025-04-11 15:00:00+00:00,525.2479737491414
2025-04-11 16:00:00+00:00,498.8580028874318
2025-04-11 17:00:00+00:00,457.8322374355629
2025-04-11 18:00:00+00:00,418.5157864876726
2025-04-11 19:00:00+00:00,434.997866273635
2025-04-14 13:00:00+00:00,319.56649477822566
2025-04-14 14:00:00+00:00,322.32024413082064
2025-04-14 15:00:00+00:00,364.39895894995817
2025-04-14 16:00:00+00:00,328.66256719021396
2025-04-14 17:00:00+00:00,313.8196475931982
2025-04-14 18:00:00+00:00,325.0085980131246
2025-04-14 19:00:00+00:00,328.0901298977121
2025-04-15 13:00:00+00:00,158.49427956702098
2025-04-15 14:00:00+00:00,175.58019979252634
2025-04-15 15:00:00+00:00,199.0743423194402
2025-04-15 16:00:00+00:00,225.7099028224559
2025-04-15 17:00:00+00:00,219.21426151126153
2025-04-15 18:00:00+00:00,205.9183806671598
2025-04-15 19:00:00+00:00,244.17164614900997
2025-04-16 13:00:00+00:00,91.63672301133556
2025-04-16 14:00:00+00:00,42.04009089835623
2025-04-16 15:00:00+00:00,96.69419690762082
2025-04-16 16:00:00+00:00,75.39716069036544
2025-04-16 17:00:00+00:00,132.58523851574822
2025-04-16 18:00:00+00:00,183.82467068313025
2025-04-16 19:00:00+00:00,143.5113512468838
2025-04-17 13:00:00+00:00,9.887096264998206
2025-04-17 14:00:00+00:00,-39.6534891140848
2025-04-17 15:00:00+00:00,-44.931895691420856
2025-04-17 16:00:00+00:00,-16.148379472384452
2025-04-17 17:00:00+00:00,-25.54360669466773
2025-04-17 18:00:00+00:00,4.046788400876295
2025-04-17 19:00:00+00:00,15.516973308768037
2025-04-21 13:00:00+00:00,133.34043494499656
2025-04-21 14:00:00+00:00,135.49839656146784
2025-04-21 15:00:00+00:00,117.72138348736988
2025-04-21 16:00:00+00:00,93.0339334244324
2025-04-21 17:00:00+00:00,84.98590158150034
2025-04-21 18:00:00+00:00,87.67440541727605
2025-04-21 19:00:00+00:00,50.83925163486835
2025-04-22 13:00:00+00:00,-79.8821630635067
2025-04-22 14:00:00+00:00,-80.62657991531543
2025-04-22 15:00:00+00:00,-174.6038489142392
2025-04-22 16:00:00+00:00,-100.30899709542567
2025-04-22 17:00:00+00:00,-104.25762484401747
2025-04-22 18:00:00+00:00,-111.84918636487721
2025-04-22 19:00:00+00:00,-114.1414058770386
2025-04-23 13:00:00+00:00,-96.04497483612957
2025-04-23 14:00:00+00:00,-25.589414173814234
2025-04-23 15:00:00+00:00,-35.01001284298996
2025-04-23 16:00:00+00:00,-52.27794923441067
2025-04-23 17:00:00+00:00,-46.062060861127776
2025-04-23 18:00:00+00:00,-41.3822599854817
2025-04-23 19:00:00+00:00,-37.35440760668213
2025-04-24 13:00:00+00:00,-96.80288406151281
2025-04-24 14:00:00+00:00,-80.99491685885472
2025-04-24 15:00:00+00:00,-99.18596170315949
2025-04-24 16:00:00+00:00,-96.30101881971319
2025-04-24 17:00:00+00:00,-81.18103814431535
2025-04-24 18:00:00+00:00,-101.54457985644265
2025-04-24 19:00:00+00:00,-108.66935329301926
2025-04-25 13:00:00+00:00,-128.58067975609035
2025-04-25 14:00:00+00:00,-130.53875851274094
2025-04-25 15:00:00+00:00,-136.6880982914299
2025-04-25 16:00:00+00:00,-141.77014748453377
2025-04-25 17:00:00+00:00,-129.62972349597638
2025-04-25 18:00:00+00:00,-143.20926290537096
2025-04-25 19:00:00+00:00,-162.15504236369284
2025-04-28 13:00:00+00:00,-193.69381050526275
2025-04-28 14:00:00+00:00,-136.8213949727819
2025-04-28 15:00:00+00:00,-153.69975908235773
2025-04-28 16:00:00+00:00,-128.27475416285378
2025-04-28 17:00:00+00:00,-138.5061683249602
2025-04-28 18:00:00+00:00,-126.26376913865806
2025-04-28 19:00:00+00:00,-129.3421947019128
2025-04-29 13:00:00+00:00,22.05907335406954
2025-04-29 14:00:00+00:00,61.031728510221136
2025-04-29 15:00:00+00:00,23.22792140173057
2025-04-29 16:00:00+00:00,72.6489340899481
2025-04-29 17:00:00+00:00,104.29381635238673
2025-04-29 18:00:00+00:00,110.44723851494992
2025-04-29 19:00:00+00:00,123.10526652756596
2025-04-30 13:00:00+00:00,156.25144226540414
2025-04-30 14:00:00+00:00,156.61314883060987
2025-04-30 15:00:00+00:00,255.5851329501534
2025-04-30 16:00:00+00:00,249.63648729215086
2025-04-30 17:00:00+00:00,240.14948998185187
2025-04-30 18:00:00+00:00,228.5004635194133
2025-04-30 19:00:00+00:00,236.9555968472768
2025-05-01 13:00:00+00:00,212.84646064726903
2025-05-01 14:00:00+00:00,187.3868779693564
2025-05-01 15:00:00+00:00,289.0791868073886
2025-05-01 16:00:00+00:00,240.12135648301566
2025-05-01 17:00:00+00:00,144.2445465751062
2025-05-01 18:00:00+00:00,166.4965121279591
2025-05-01 19:00:00+00:00,149.5270582719878
2025-05-02 13:00:00+00:00,90.58714572732472
2025-05-02 14:00:00+00:00,109.04152765952847
2025-05-02 15:00:00+00:00,86.27044881739033
2025-05-02 16:00:00+00:00,64.77984825688904
2025-05-02 17:00:00+00:00,75.44631128400111
2025-05-02 18:00:00+00:00,67.22269416132393
2025-05-02 19:00:00+00:00,82.42004059263283
2025-05-05 13:00:00+00:00,-150.22133901972413
2025-05-05 14:00:00+00:00,-148.02798838397703
2025-05-05 15:00:00+00:00,-166.77732879462897
2025-05-05 16:00:00+00:00,-132.25524829230562
2025-05-05 17:00:00+00:00,-161.80396684104213
2025-05-05 18:00:00+00:00,-225.26394562858584
2025-05-05 19:00:00+00:00,-248.76905527028714
2025-05-06 13:00:00+00:00,-118.48950593401491
2025-05-06 14:00:00+00:00,-36.21033232772909
2025-05-06 15:00:00+00:00,-64.688653969546
2025-05-06 16:00:00+00:00,-39.951635577301
2025-05-06 17:00:00+00:00,-39.15096839226759
2025-05-06 18:00:00+00:00,-37.529725104227474
2025-05-06 19:00:00+00:00,-39.30233192799674
2025-05-07 13:00:00+00:00,-5.336668984346012
2025-05-07 14:00:00+00:00,31.370521549913654
2025-05-07 15:00:00+00:00,24.82815372241237
2025-05-07 16:00:00+00:00,6.637108878107885
2025-05-07 17:00:00+00:00,15.000803013940939
2025-05-07 18:00:00+00:00,14.186881199680858
2025-05-07 19:00:00+00:00,13.44261430134242
2025-05-08 13:00:00+00:00,-0.22820097320752453
2025-05-08 14:00:00+00:00,19.584905966029897
2025-05-08 15:00:00+00:00,-39.21802251340792
2025-05-08 16:00:00+00:00,-36.38223022359844
2025-05-08 17:00:00+00:00,-43.06671049257445
2025-05-08 18:00:00+00:00,-64.76233234158065
2025-05-08 19:00:00+00:00,-72.4063007308768
2025-05-09 13:00:00+00:00,-301.86459099657367
2025-05-09 14:00:00+00:00,-355.1746947875019
2025-05-09 15:00:00+00:00,-325.6160656752197
2025-05-09 16:00:00+00:00,-358.37905563775985
2025-05-09 17:00:00+00:00,-356.15062784449543
2025-05-09 18:00:00+00:00,-369.0384250527217
2025-05-09 19:00:00+00:00,-353.45476261437244
2025-05-12 13:00:00+00:00,-428.06208874131994
2025-05-12 14:00:00+00:00,-387.4084975703369
2025-05-12 15:00:00+00:00,-373.13801526582307
2025-05-12 16:00:00+00:00,-389.52858756972034
2025-05-12 17:00:00+00:00,-384.5271604073302
2025-05-12 18:00:00+00:00,-407.4002144472131
2025-05-12 19:00:00+00:00,-404.32930023177863
2025-05-13 13:00:00+00:00,-396.31986960336604
2025-05-13 14:00:00+00:00,-450.56707361986156
2025-05-13 15:00:00+00:00,-473.92416379151325
2025-05-13 16:00:00+00:00,-489.690191841414
2025-05-13 17:00:00+00:00,-455.32601746227823
2025-05-13 18:00:00+00:00,-482.2952193216957
2025-05-13 19:00:00+00:00,-450.29998085805215
2025-05-14 13:00:00+00:00,-449.64044110997537
2025-05-14 14:00:00+00:00,-425.0474548969612
2025-05-14 15:00:00+00:00,-418.66659891308524
2025-05-14 16:00:00+00:00,-424.62981740631506
2025-05-14 17:00:00+00:00,-405.58892474549
2025-05-14 18:00:00+00:00,-414.7742515355691
2025-05-14 19:00:00+00:00,-417.6555886985758
2025-05-15 13:00:00+00:00,-274.34103536348124
2025-05-15 14:00:00+00:00,-312.29588659991475
2025-05-15 15:00:00+00:00,-337.93833428848603
2025-05-15 16:00:00+00:00,-340.81967145149247
2025-05-15 17:00:00+00:00,-351.55280090192485
2025-05-15 18:00:00+00:00,-357.91979115617806
2025-05-15 19:00:00+00:00,-353.24068057543406
2025-05-16 13:00:00+00:00,-222.47046472905888
2025-05-16 14:00:00+00:00,-259.71612622467313
2025-05-16 15:00:00+00:00,-264.9772847545233
2025-05-16 16:00:00+00:00,-272.6954309149628
2025-05-16 17:00:00+00:00,-277.38069638534387
2025-05-16 18:00:00+00:00,-273.912848493716
2025-05-16 19:00:00+00:00,-260.62501128796583
2025-05-19 13:00:00+00:00,-193.3007824564516
2025-05-19 14:00:00+00:00,-175.43226190029063
2025-05-19 15:00:00+00:00,-171.95770196689242
2025-05-19 16:00:00+00:00,-171.25815196933732
2025-05-19 17:00:00+00:00,-169.83435569270603
2025-05-19 18:00:00+00:00,-167.77740805964171
2025-05-19 19:00:00+00:00,-199.25303383489407
2025-05-20 13:00:00+00:00,-161.7545029670598
2025-05-20 14:00:00+00:00,-174.4532225219653
2025-05-20 15:00:00+00:00,-179.75992592501242
2025-05-20 16:00:00+00:00,-204.24407494503927
2025-05-20 17:00:00+00:00,-172.30852308074657
2025-05-20 18:00:00+00:00,-165.72427195113153
2025-05-20 19:00:00+00:00,-174.40415359176623
2025-05-21 13:00:00+00:00,-186.06675409121797
2025-05-21 14:00:00+00:00,-177.55944551182395
2025-05-21 15:00:00+00:00,-174.90601883356493
2025-05-21 16:00:00+00:00,-146.66296907084455
2025-05-21 17:00:00+00:00,-142.26840700589344
2025-05-21 18:00:00+00:00,-117.72832706042618
2025-05-21 19:00:00+00:00,-114.2040488442493
2025-05-22 13:00:00+00:00,-72.89754830352365
2025-05-22 14:00:00+00:00,-83.40602354401318
2025-05-22 15:00:00+00:00,-127.31001983755681
2025-05-22 16:00:00+00:00,-137.87753232481808
2025-05-22 17:00:00+00:00,-140.85022701641788
2025-05-22 18:00:00+00:00,-161.13690237174228
2025-05-22 19:00:00+00:00,-137.87753232481808
2025-05-23 13:00:00+00:00,-104.44139779061733
2025-05-23 14:00:00+00:00,-114.62191795180524
2025-05-23 15:00:00+00:00,-151.11990632080875
2025-05-23 16:00:00+00:00,-183.41355902986703
2025-05-23 17:00:00+00:00,-170.42082341891344
2025-05-23 18:00:00+00:00,-188.6502580713534
2025-05-23 19:00:00+00:00,-192.38094365177324
2025-05-27 13:00:00+00:00,-222.73583206902725
2025-05-27 14:00:00+00:00,-211.54792155307186
2025-05-27 15:00:00+00:00,-195.2762725874626
2025-05-27 16:00:00+00:00,-179.00902864834256
2025-05-27 17:00:00+00:00,-202.2468955747617
2025-05-27 18:00:00+00:00,-203.2965886672277
2025-05-27 19:00:00+00:00,-193.8022299625802
2025-05-28 13:00:00+00:00,-143.8302831023662
2025-05-28 14:00:00+00:00,-143.54233657263194
2025-05-28 15:00:00+00:00,-141.4718149025554
2025-05-28 16:00:00+00:00,-190.44102973594624
2025-05-28 17:00:00+00:00,-178.2332903129291
2025-05-28 18:00:00+00:00,-161.02454112175258
2025-05-28 19:00:00+00:00,-150.61493475767742
2025-05-29 13:00:00+00:00,-149.4424126995424
2025-05-29 14:00:00+00:00,-167.31403957703543
2025-05-29 15:00:00+00:00,-166.89279636595006
2025-05-29 16:00:00+00:00,-191.40190427344766
2025-05-29 17:00:00+00:00,-194.06893913373656
2025-05-29 18:00:00+00:00,-205.86897557910322
2025-05-29 19:00:00+00:00,-222.03864934696733
2025-05-30 13:00:00+00:00,-203.42946761290807
2025-05-30 14:00:00+00:00,-190.76632461462745
2025-05-30 15:00:00+00:00,-204.66160798036012
2025-05-30 16:00:00+00:00,-212.82871311505198
2025-05-30 17:00:00+00:00,-226.08507888372498
2025-05-30 18:00:00+00:00,-224.2775448559111
2025-05-30 19:00:00+00:00,-224.6146419792818
2025-06-02 13:00:00+00:00,-249.64278151262747
2025-06-02 14:00:00+00:00,-276.8718646929777
2025-06-02 15:00:00+00:00,-315.69248019683687
2025-06-02 16:00:00+00:00,-287.1099908968542
2025-06-02 17:00:00+00:00,-277.98780647309326
2025-06-02 18:00:00+00:00,-299.7798459369049
2025-06-02 19:00:00+00:00,-295.25934858495236
2025-06-03 13:00:00+00:00,-272.27059535684
2025-06-03 14:00:00+00:00,-262.8885979021816
2025-06-03 15:00:00+00:00,-262.91681306445645
2025-06-03 16:00:00+00:00,-264.99426845866947
2025-06-03 17:00:00+00:00,-254.31799700299808
2025-06-03 18:00:00+00:00,-269.767713407417
2025-06-03 19:00:00+00:00,-262.8326669767415
2025-06-04 13:00:00+00:00,-239.37677621871026
2025-06-04 14:00:00+00:00,-166.75240607244936
2025-06-04 15:00:00+00:00,-112.31236872871978
2025-06-04 16:00:00+00:00,-153.4187562113024
2025-06-04 17:00:00+00:00,-149.55837966996975
2025-06-04 18:00:00+00:00,-143.74712011678776
2025-06-04 19:00:00+00:00,-134.9648736782059
2025-06-05 13:00:00+00:00,-168.0865216376456
2025-06-05 14:00:00+00:00,-180.97446879934222
2025-06-05 15:00:00+00:00,-199.82137938125038
2025-06-05 16:00:00+00:00,-208.05984533568656
2025-06-05 17:00:00+00:00,-182.91344079764374
2025-06-05 18:00:00+00:00,-169.9501365443722
2025-06-05 19:00:00+00:00,-169.12885333576153
2025-06-06 13:00:00+00:00,-174.2492721264744
2025-06-06 14:00:00+00:00,-158.99975044363407
2025-06-06 15:00:00+00:00,-193.36031910233302
2025-06-06 16:00:00+00:00,-169.47264912750117
2025-06-06 17:00:00+00:00,-177.22947816589456
2025-06-06 18:00:00+00:00,-169.04454392117273
2025-06-06 19:00:00+00:00,-168.55314639505485
2025-06-09 13:00:00+00:00,-207.4067897123582
2025-06-09 14:00:00+00:00,-206.9078876755423
2025-06-09 15:00:00+00:00,-211.3865958282077
2025-06-09 16:00:00+00:00,-220.60498694496746
2025-06-09 17:00:00+00:00,-231.37110126420697
2025-06-09 18:00:00+00:00,-231.11497561718616
2025-06-09 19:00:00+00:00,-206.57800199304913
2025-06-10 13:00:00+00:00,-320.60023020863025
2025-06-10 14:00:00+00:00,-334.916675122012
2025-06-10 15:00:00+00:00,-338.3912350554105
2025-06-10 16:00:00+00:00,-351.2156531041601
2025-06-10 17:00:00+00:00,-321.2636072940543
2025-06-10 18:00:00+00:00,-319.46654098192244
2025-06-10 19:00:00+00:00,-338.41232044024366
2025-06-11 13:00:00+00:00,-408.5313110934711
2025-06-11 14:00:00+00:00,-385.6116173769674
2025-06-11 15:00:00+00:00,-377.626877853825
2025-06-11 16:00:00+00:00,-395.5404739219269
2025-06-11 17:00:00+00:00,-445.8320764933004
2025-06-11 18:00:00+00:00,-438.81640803191067
2025-06-11 19:00:00+00:00,-455.02100900381936
2025-06-12 13:00:00+00:00,-496.89721490753004
2025-06-12 14:00:00+00:00,-492.0982966605646
2025-06-12 15:00:00+00:00,-510.48938627297974
2025-06-12 16:00:00+00:00,-504.83144402040836
2025-06-12 17:00:00+00:00,-488.9290129678251
2025-06-12 18:00:00+00:00,-481.5302847741973
2025-06-12 19:00:00+00:00,-464.69723392090947
2025-06-13 13:00:00+00:00,-545.8188626665547
2025-06-13 14:00:00+00:00,-541.5090277518633
2025-06-13 15:00:00+00:00,-539.7222792019402
2025-06-13 16:00:00+00:00,-542.9161723365162
2025-06-13 17:00:00+00:00,-548.3420989847946
2025-06-13 18:00:00+00:00,-575.3677311687617
2025-06-13 19:00:00+00:00,-584.0083364295059
2025-06-16 13:00:00+00:00,-464.69715225747234
2025-06-16 14:00:00+00:00,-493.27744909703495
2025-06-16 15:00:00+00:00,-505.86907846852677
2025-06-16 16:00:00+00:00,-523.5736908189094
2025-06-16 17:00:00+00:00,-504.129801792699
2025-06-16 18:00:00+00:00,-494.4775369648652
2025-06-16 19:00:00+00:00,-483.50277303920126
2025-06-17 13:00:00+00:00,-558.5802251886707
2025-06-17 14:00:00+00:00,-543.8674959516746
2025-06-17 15:00:00+00:00,-569.6254928750033
2025-06-17 16:00:00+00:00,-579.0663215885862
2025-06-17 17:00:00+00:00,-588.2659960926676
2025-06-17 18:00:00+00:00,-563.0129707324692
2025-06-17 19:00:00+00:00,-564.0553024305842
2025-06-18 13:00:00+00:00,-458.7028800628369
2025-06-18 14:00:00+00:00,-460.94538129221934
2025-06-18 15:00:00+00:00,-466.7999125459328
2025-06-18 16:00:00+00:00,-489.73625890560635
2025-06-18 17:00:00+00:00,-484.9240593500095
2025-06-18 18:00:00+00:00,-436.1664237472169
2025-06-18 19:00:00+00:00,-459.4044406271082
2025-06-20 13:00:00+00:00,-465.4659469342081
2025-06-20 14:00:00+00:00,-426.00197591537506
2025-06-20 15:00:00+00:00,-438.51445837636453
2025-06-20 16:00:00+00:00,-437.5950714523736
2025-06-20 17:00:00+00:00,-439.36031688179287
2025-06-20 18:00:00+00:00,-447.1802882865063
2025-06-20 19:00:00+00:00,-464.4831518819723
2025-06-23 13:00:00+00:00,-474.3705386354302
2025-06-23 14:00:00+00:00,-482.3270629962977
2025-06-23 15:00:00+00:00,-499.4302312692901
2025-06-23 16:00:00+00:00,-370.0475787117133
2025-06-23 17:00:00+00:00,-298.5763612592867
2025-06-23 18:00:00+00:00,-309.9969778378719
2025-06-23 19:00:00+00:00,-282.30846796758794
2025-06-24 13:00:00+00:00,-209.10862249752745
2025-06-24 14:00:00+00:00,-235.19339878201563
2025-06-24 15:00:00+00:00,-221.84552553127983
2025-06-24 16:00:00+00:00,-206.53256157517828
2025-06-24 17:00:00+00:00,-199.21134909093118
2025-06-24 18:00:00+00:00,-202.86466891544154
2025-06-24 19:00:00+00:00,-179.7599487169004
2025-06-25 13:00:00+00:00,-165.9750676600265
2025-06-25 14:00:00+00:00,-180.9498004859591
2025-06-25 15:00:00+00:00,-470.77606993892994
2025-06-25 16:00:00+00:00,-323.96962695951476
2025-06-25 17:00:00+00:00,-309.0567030009383
2025-06-25 18:00:00+00:00,-326.45467979890657
2025-06-25 19:00:00+00:00,-326.59548973046043
2025-06-26 13:00:00+00:00,-295.4949110381371
2025-06-26 14:00:00+00:00,-336.1376167577674
2025-06-26 15:00:00+00:00,-354.0694296337206
2025-06-26 16:00:00+00:00,-316.1741150431642
2025-06-26 17:00:00+00:00,-306.15753672790163
2025-06-26 18:00:00+00:00,-293.5922638078194
2025-06-26 19:00:00+00:00,-289.1316525473825
2025-06-27 13:00:00+00:00,-302.4230954735716
2025-06-27 14:00:00+00:00,-360.22563140765084
2025-06-27 15:00:00+00:00,-311.7905200930023
2025-06-27 16:00:00+00:00,-309.04357536596166
2025-06-27 17:00:00+00:00,-295.1018829893254
2025-06-27 18:00:00+00:00,-302.96003787288737
2025-06-27 19:00:00+00:00,-308.3828581998337
2025-06-30 13:00:00+00:00,-260.193486479962
2025-06-30 14:00:00+00:00,-268.9926472164716
2025-06-30 15:00:00+00:00,-243.99249122849224
2025-06-30 16:00:00+00:00,-234.37545351164601
2025-06-30 17:00:00+00:00,-232.60645240831624
2025-06-30 18:00:00+00:00,-237.65031812257163
2025-06-30 19:00:00+00:00,-227.170058044357
2025-07-01 13:00:00+00:00,-264.7878938208575
2025-07-01 14:00:00+00:00,-308.98604928679947
2025-07-01 15:00:00+00:00,-344.6664284576662
2025-07-01 16:00:00+00:00,-335.01481298241015
2025-07-01 17:00:00+00:00,-327.6196905092213
2025-07-01 18:00:00+00:00,-352.6511679808067
2025-07-01 19:00:00+00:00,-345.16158165769303
2025-07-02 13:00:00+00:00,-415.8622325622075
2025-07-02 14:00:00+00:00,-457.1760944972819
2025-07-02 15:00:00+00:00,-460.81216627430547
2025-07-02 16:00:00+00:00,-477.3676566501016
2025-07-02 17:00:00+00:00,-517.61407804612
2025-07-02 18:00:00+00:00,-524.6866762311647
2025-07-02 19:00:00+00:00,-525.0092005193078
2025-07-03 13:00:00+00:00,-453.9449460865408
2025-07-03 14:00:00+00:00,-417.2557214464109
2025-07-03 15:00:00+00:00,-418.3052457934658
2025-07-07 13:00:00+00:00,-328.3076770364805
2025-07-07 14:00:00+00:00,-316.1463992799983
2025-07-07 15:00:00+00:00,-294.29792949163766
2025-07-07 16:00:00+00:00,-276.6015384482537
2025-07-07 17:00:00+00:00,-283.322747830303
2025-07-07 18:00:00+00:00,-313.51405798657123
2025-07-07 19:00:00+00:00,-316.3885331543367
2025-07-08 13:00:00+00:00,-458.39040575470267
2025-07-08 14:00:00+00:00,-467.30503406253445
2025-07-08 15:00:00+00:00,-511.57023752217594
2025-07-08 16:00:00+00:00,-507.88847091848555
2025-07-08 17:00:00+00:00,-487.27942122848856
2025-07-08 18:00:00+00:00,-476.6831941798446
2025-07-08 19:00:00+00:00,-493.242290276083
2025-07-09 13:00:00+00:00,-562.8516905057528
2025-07-09 14:00:00+00:00,-537.5573121324367
2025-07-09 15:00:00+00:00,-525.0128062397467
2025-07-09 16:00:00+00:00,-522.9632200010307
2025-07-09 17:00:00+00:00,-506.6357900634529
2025-07-09 18:00:00+00:00,-520.7661136913742
2025-07-09 19:00:00+00:00,-528.6908171695279
2025-07-10 13:00:00+00:00,-595.4888029343173
2025-07-10 14:00:00+00:00,-614.7718294694799
2025-07-10 15:00:00+00:00,-607.9663240462445
2025-07-10 16:00:00+00:00,-591.3718013468549
2025-07-10 17:00:00+00:00,-587.9359242914118
2025-07-10 18:00:00+00:00,-587.0583607117253
2025-07-10 19:00:00+00:00,-602.0067112734539
2025-07-11 13:00:00+00:00,-856.4933726894033
2025-07-11 14:00:00+00:00,-833.3463638924687
2025-07-11 15:00:00+00:00,-861.7791406610887
2025-07-11 16:00:00+00:00,-877.5656047432427
2025-07-11 17:00:00+00:00,-890.3312223383768
2025-07-11 18:00:00+00:00,-879.5838694983526
2025-07-11 19:00:00+00:00,-867.2824330652771
2025-07-14 13:00:00+00:00,-720.019170318152
2025-07-14 14:00:00+00:00,-732.0085501787648
2025-07-14 15:00:00+00:00,-725.0029999874199
2025-07-14 16:00:00+00:00,-721.0019653703874
2025-07-14 17:00:00+00:00,-744.6230419825174
2025-07-14 18:00:00+00:00,-727.8701137608348
2025-07-14 19:00:00+00:00,-733.5598768961199
2025-07-15 13:00:00+00:00,-725.2031947090005
2025-07-15 14:00:00+00:00,-697.5884448741875
2025-07-15 15:00:00+00:00,-716.3211947644483
2025-07-15 16:00:00+00:00,-728.2005805058717
2025-07-15 17:00:00+00:00,-724.792269260125
2025-07-15 18:00:00+00:00,-701.6945610102975
2025-07-15 19:00:00+00:00,-727.7196506954349
2025-07-16 13:00:00+00:00,-783.170543123952
2025-07-16 14:00:00+00:00,-782.9210168662212
2025-07-16 15:00:00+00:00,-773.9331962120621
2025-07-16 16:00:00+00:00,-783.4264061650235
2025-07-16 17:00:00+00:00,-764.7090365905557
2025-07-16 18:00:00+00:00,-767.4145329878746
2025-07-16 19:00:00+00:00,-767.6641337890335
2025-07-17 13:00:00+00:00,-769.1874769610228
2025-07-17 14:00:00+00:00,-778.607576231092
2025-07-17 15:00:00+00:00,-791.5727391952257
2025-07-17 16:00:00+00:00,-775.5401177826244
2025-07-17 17:00:00+00:00,-819.4545817918495
2025-07-17 18:00:00+00:00,-813.4636475354532
2025-07-17 19:00:00+00:00,-818.1379458910457
2025-07-18 13:00:00+00:00,-883.3848727206777
2025-07-18 14:00:00+00:00,-858.8203332868467
2025-07-18 15:00:00+00:00,-826.6604766582461
2025-07-18 16:00:00+00:00,-824.0416277383954
2025-07-18 17:00:00+00:00,-795.8987468946386
2025-07-18 18:00:00+00:00,-814.1514841092409
2025-07-18 19:00:00+00:00,-806.0157955121732
2025-07-21 13:00:00+00:00,-880.9382349770415
2025-07-21 14:00:00+00:00,-916.9343581042463
2025-07-21 15:00:00+00:00,-889.8956512823744
2025-07-21 16:00:00+00:00,-902.9713419098236
2025-07-21 17:00:00+00:00,-895.6937522115394
2025-07-21 18:00:00+00:00,-879.2403869869593
2025-07-21 19:00:00+00:00,-887.09854187052
2025-07-22 13:00:00+00:00,-996.2700509794212
2025-07-22 14:00:00+00:00,-963.0182126599615
2025-07-22 15:00:00+00:00,-969.6935277231776
2025-07-22 16:00:00+00:00,-963.7270529551456
2025-07-22 17:00:00+00:00,-963.3976666717604
2025-07-22 18:00:00+00:00,-968.6970086804587
2025-07-22 19:00:00+00:00,-939.8330203841792
2025-07-23 13:00:00+00:00,-1033.3781607206663
2025-07-23 14:00:00+00:00,-1042.5831502074514
2025-07-23 15:00:00+00:00,-1049.7869798702645
2025-07-23 16:00:00+00:00,-1025.6327165327305
2025-07-23 17:00:00+00:00,-1033.6137003819615
2025-07-23 18:00:00+00:00,-992.9704952632237
2025-07-23 19:00:00+00:00,-962.1373111420344
2025-07-24 13:00:00+00:00,-895.497081546961
2025-07-24 14:00:00+00:00,-869.2163656139095
2025-07-24 15:00:00+00:00,-845.3286956390776
2025-07-24 16:00:00+00:00,-829.688602876179
2025-07-24 17:00:00+00:00,-844.8372981129595
2025-07-24 18:00:00+00:00,-815.1833480916758
2025-07-24 19:00:00+00:00,-818.847635030974
2025-07-25 13:00:00+00:00,-732.2649891061312
2025-07-25 14:00:00+00:00,-773.03773523231
2025-07-25 15:00:00+00:00,-790.8429634686815
2025-07-25 16:00:00+00:00,-818.7248060653031
2025-07-25 17:00:00+00:00,-835.6132884449245
2025-07-25 18:00:00+00:00,-830.667642254504
2025-07-25 19:00:00+00:00,-844.1912507384582
2025-07-28 13:00:00+00:00,-905.3488100803597
2025-07-28 14:00:00+00:00,-904.8192290753943
2025-07-28 15:00:00+00:00,-891.6605834314486
2025-07-28 16:00:00+00:00,-863.5200082655814
2025-07-28 17:00:00+00:00,-868.977755796573
2025-07-28 18:00:00+00:00,-863.4500039040206
2025-07-28 19:00:00+00:00,-908.2169226519896
2025-07-29 13:00:00+00:00,-896.1011081052673
2025-07-29 14:00:00+00:00,-866.4644877949063
2025-07-29 15:00:00+00:00,-884.4339847505988
2025-07-29 16:00:00+00:00,-871.9959953613693
2025-07-29 17:00:00+00:00,-920.7749841311936
2025-07-29 18:00:00+00:00,-926.9871168305664
2025-07-29 19:00:00+00:00,-950.7372350510292
2025-07-30 13:00:00+00:00,-795.2963994535307
2025-07-30 14:00:00+00:00,-793.9451516493021
2025-07-30 15:00:00+00:00,-812.746730524423
2025-07-30 16:00:00+00:00,-816.3957490126485
2025-07-30 17:00:00+00:00,-818.7320041327788
2025-07-30 18:00:00+00:00,-747.0762056491617
2025-07-30 19:00:00+00:00,-803.3940812892065
2025-07-31 13:00:00+00:00,-784.8867930894561
2025-07-31 14:00:00+00:00,-769.6645694341124
2025-07-31 15:00:00+00:00,-796.6905510637162
2025-07-31 16:00:00+00:00,-783.9668726213403
2025-07-31 17:00:00+00:00,-786.8168883007404
2025-07-31 18:00:00+00:00,-786.0662588062701
2025-07-31 19:00:00+00:00,-795.9526467615136
2025-08-01 13:00:00+00:00,-759.6032307896354
2025-08-01 14:00:00+00:00,-756.9064765602016
2025-08-01 15:00:00+00:00,-780.8610445752632
2025-08-01 16:00:00+00:00,-753.2459452948144
2025-08-01 17:00:00+00:00,-749.8572402065233
2025-08-01 18:00:00+00:00,-767.8325892913383
2025-08-01 19:00:00+00:00,-766.9832408739252
2025-08-04 13:00:00+00:00,-893.2442759287708
2025-08-04 14:00:00+00:00,-914.2846870998973
2025-08-04 15:00:00+00:00,-905.9705612933702
2025-08-04 16:00:00+00:00,-904.35562284844
2025-08-04 17:00:00+00:00,-946.5893069237447
2025-08-04 18:00:00+00:00,-977.4507062072086
2025-08-04 19:00:00+00:00,-945.3462811049411
2025-08-05 13:00:00+00:00,-1152.6263658532548
2025-08-05 14:00:00+00:00,-1158.6701247137603
2025-08-05 15:00:00+00:00,-1216.455680382553
2025-08-05 16:00:00+00:00,-1114.1551882410827
2025-08-05 17:00:00+00:00,-1124.892311109774
2025-08-05 18:00:00+00:00,-1176.2465286044735
2025-08-05 19:00:00+00:00,-1223.6568207768246
2025-08-06 13:00:00+00:00,-1410.3031647298699
2025-08-06 14:00:00+00:00,-1432.6430320443485
2025-08-06 15:00:00+00:00,-1363.7352740423864
2025-08-06 16:00:00+00:00,-1367.9966893794574
2025-08-06 17:00:00+00:00,-1323.724623924574
2025-08-06 18:00:00+00:00,-1322.9802070727662
2025-08-06 19:00:00+00:00,-1319.9657231818805
2025-08-07 13:00:00+00:00,-1401.623308902028
2025-08-07 14:00:00+00:00,-1423.7839169262877
2025-08-07 15:00:00+00:00,-1455.5799594665662
2025-08-07 16:00:00+00:00,-1377.2342730845048
2025-08-07 17:00:00+00:00,-1368.9389045906914
2025-08-07 18:00:00+00:00,-1405.5124000047417
2025-08-07 19:00:00+00:00,-1412.924852188853
2025-08-08 13:00:00+00:00,-1404.0421947172063
2025-08-08 14:00:00+00:00,-1411.4899918410333
2025-08-08 15:00:00+00:00,-1424.3490744878766
2025-08-08 16:00:00+00:00,-1427.3891666188129
2025-08-08 17:00:00+00:00,-1439.0409499569478
2025-08-08 18:00:00+00:00,-1424.1880620433587
2025-08-08 19:00:00+00:00,-1401.532450772542
2025-08-11 13:00:00+00:00,-1400.1339710433506
2025-08-11 14:00:00+00:00,-1388.0480245656506
2025-08-11 15:00:00+00:00,-1363.427124999687
2025-08-11 16:00:00+00:00,-1341.0379552357197
2025-08-11 17:00:00+00:00,-1328.2415155560877
2025-08-11 18:00:00+00:00,-1340.7713618730172
2025-08-11 19:00:00+00:00,-1336.3908732441862
2025-08-12 13:00:00+00:00,-1352.6413551615258
2025-08-12 14:00:00+00:00,-1390.68028419564
2025-08-12 15:00:00+00:00,-1388.1389509851713
2025-08-12 16:00:00+00:00,-1382.3098780180364
2025-08-12 17:00:00+00:00,-1368.0383969153072
2025-08-12 18:00:00+00:00,-1368.438786358468
2025-08-12 19:00:00+00:00,-1343.178899003028
2025-08-13 13:00:00+00:00,-1354.298344460502
2025-08-13 14:00:00+00:00,-1343.9823531016082
2025-08-13 15:00:00+00:00,-1337.2629346452607
2025-08-13 16:00:00+00:00,-1350.8970451634675
2025-08-13 17:00:00+00:00,-1337.1497812677842
2025-08-13 18:00:00+00:00,-1348.4046309297264
2025-08-13 19:00:00+00:00,-1377.519031629471
2025-08-14 13:00:00+00:00,-1307.6530880171083
2025-08-14 14:00:00+00:00,-1354.4766049525058
2025-08-14 15:00:00+00:00,-1393.821502679578
2025-08-14 16:00:00+00:00,-1400.040846819829
2025-08-14 17:00:00+00:00,-1393.817747005668
2025-08-14 18:00:00+00:00,-1439.1044283955007
2025-08-14 19:00:00+00:00,-1456.8463643120815
2025-08-15 13:00:00+00:00,-1371.6927155380317
2025-08-15 14:00:00+00:00,-1383.5309696072636
2025-08-15 15:00:00+00:00,-1418.014866630738
2025-08-15 16:00:00+00:00,-1384.8366383932785
2025-08-15 17:00:00+00:00,-1373.2369124779464
2025-08-15 18:00:00+00:00,-1368.5860748125021
2025-08-15 19:00:00+00:00,-1389.111627767362
2025-08-18 13:00:00+00:00,-1337.9877448347384
2025-08-18 14:00:00+00:00,-1341.347254932487
2025-08-18 15:00:00+00:00,-1346.2291094040093
2025-08-18 16:00:00+00:00,-1350.2509977889663
2025-08-18 17:00:00+00:00,-1319.0283913394042
2025-08-18 18:00:00+00:00,-1327.2169313045656
2025-08-18 19:00:00+00:00,-1347.569355948433
2025-08-19 13:00:00+00:00,-1354.595909861174
2025-08-19 14:00:00+00:00,-1360.2648192285344
2025-08-19 15:00:00+00:00,-1324.6016881051535
2025-08-19 16:00:00+00:00,-1335.4756255847587
2025-08-19 17:00:00+00:00,-1281.4734301470235
2025-08-19 18:00:00+00:00,-1295.0779284438897
2025-08-19 19:00:00+00:00,-1291.6102305057334
2025-08-20 13:00:00+00:00,-1300.0580024392473
2025-08-20 14:00:00+00:00,-1315.2339140400868
2025-08-20 15:00:00+00:00,-1303.7677525883053
2025-08-20 16:00:00+00:00,-1289.1330145493866
2025-08-20 17:00:00+00:00,-1276.535063687516
2025-08-20 18:00:00+00:00,-1315.1537914084813
2025-08-20 19:00:00+00:00,-1285.1449968172337
2025-08-21 13:00:00+00:00,-1276.6125793968972
2025-08-21 14:00:00+00:00,-1279.424261643979
2025-08-21 15:00:00+00:00,-1280.0766716146143
2025-08-21 16:00:00+00:00,-1307.765031531427
2025-08-21 17:00:00+00:00,-1316.0691890213798
2025-08-21 18:00:00+00:00,-1306.7796295569672
2025-08-21 19:00:00+00:00,-1330.1440811229675
2025-08-22 13:00:00+00:00,-1371.7308173534425
2025-08-22 14:00:00+00:00,-1385.1524506396506
2025-08-22 15:00:00+00:00,-1385.2188492807725
2025-08-22 16:00:00+00:00,-1399.005295453518
2025-08-22 17:00:00+00:00,-1410.6197441575491
2025-08-22 18:00:00+00:00,-1428.5435462865726
2025-08-22 19:00:00+00:00,-1461.472510872253
2025-08-25 13:00:00+00:00,-1443.796823643322
2025-08-25 14:00:00+00:00,-1465.4634272192404
2025-08-25 15:00:00+00:00,-1484.2791662710138
2025-08-25 16:00:00+00:00,-1498.0900719321235
2025-08-25 17:00:00+00:00,-1508.8646411362072
2025-08-25 18:00:00+00:00,-1506.5061729363952
2025-08-25 19:00:00+00:00,-1512.5891140739636
2025-08-26 13:00:00+00:00,-1411.5250235004028
2025-08-26 14:00:00+00:00,-1375.893863213207
2025-08-26 15:00:00+00:00,-1384.69923659238
2025-08-26 16:00:00+00:00,-1409.4115877897639
2025-08-26 17:00:00+00:00,-1414.0164389359293
2025-08-26 18:00:00+00:00,-1418.4042889591103
2025-08-26 19:00:00+00:00,-1435.6438602347848
2025-08-27 13:00:00+00:00,-1419.3512758378142
2025-08-27 14:00:00+00:00,-1427.4133811168658
2025-08-27 15:00:00+00:00,-1462.5508387650448
2025-08-27 16:00:00+00:00,-1490.691262075059
2025-08-27 17:00:00+00:00,-1494.61853665662
2025-08-27 18:00:00+00:00,-1488.0464444016172
2025-08-27 19:00:00+00:00,-1463.796319650219
2025-08-28 13:00:00+00:00,-1436.216147573815
2025-08-28 14:00:00+00:00,-1445.910585191589
2025-08-28 15:00:00+00:00,-1489.519389369503
2025-08-28 16:00:00+00:00,-1491.744061488855
2025-08-28 17:00:00+00:00,-1554.566121477554
2025-08-28 18:00:00+00:00,-1552.2102601999668
2025-08-28 19:00:00+00:00,-1555.7381441365822
2025-08-29 13:00:00+00:00,-1514.7581913401098
2025-08-29 14:00:00+00:00,-1512.3395371418394
2025-08-29 15:00:00+00:00,-1493.0215834026308
2025-08-29 16:00:00+00:00,-1515.9264583252273
2025-08-29 17:00:00+00:00,-1494.0680202202932
2025-08-29 18:00:00+00:00,-1500.5541076767172
2025-08-29 19:00:00+00:00,-1514.9829955035252
2025-09-02 13:00:00+00:00,-1419.575998337793
2025-09-02 14:00:00+00:00,-1420.165615387746
2025-09-02 15:00:00+00:00,-1479.2323803541901
2025-09-02 16:00:00+00:00,-1478.473390667155
2025-09-02 17:00:00+00:00,-1468.482128899331
2025-09-02 18:00:00+00:00,-1459.7496584965534
2025-09-02 19:00:00+00:00,-1487.3043722863783
2025-09-03 13:00:00+00:00,-1377.1477300623624
2025-09-03 14:00:00+00:00,-1404.4457132735872
2025-09-03 15:00:00+00:00,-1406.3714306426612
2025-09-03 16:00:00+00:00,-1413.5496508516471
2025-09-03 17:00:00+00:00,-1433.0677993124364
2025-09-03 18:00:00+00:00,-1403.8881487232559
2025-09-03 19:00:00+00:00,-1396.8086885429686
2025-09-04 13:00:00+00:00,-1348.6265965540094
2025-09-04 14:00:00+00:00,-1381.9338663998026
2025-09-04 15:00:00+00:00,-1370.4996757842052
2025-09-04 16:00:00+00:00,-1371.3203096402367
2025-09-04 17:00:00+00:00,-1352.387702177776
2025-09-04 18:00:00+00:00,-1343.4415714625645
2025-09-04 19:00:00+00:00,-1334.0183677735458
2025-09-05 13:00:00+00:00,-1287.33524113165
2025-09-05 14:00:00+00:00,-1291.4431379174782
2025-09-05 15:00:00+00:00,-1275.826373345803
2025-09-05 16:00:00+00:00,-1276.8827784800387
2025-09-05 17:00:00+00:00,-1271.2492957158302
2025-09-05 18:00:00+00:00,-1310.4576404867494
2025-09-05 19:00:00+00:00,-1307.5057995630743
2025-09-08 13:00:00+00:00,-1317.217682700225
2025-09-08 14:00:00+00:00,-1359.2293495256608
2025-09-08 15:00:00+00:00,-1342.6767659790307
2025-09-08 16:00:00+00:00,-1316.1920996504878
2025-09-08 17:00:00+00:00,-1311.54241073673
2025-09-08 18:00:00+00:00,-1312.29664595164
2025-09-08 19:00:00+00:00,-1309.9972149986006
2025-09-09 13:00:00+00:00,-1449.4586032332427
2025-09-09 14:00:00+00:00,-1421.1842319869163
2025-09-09 15:00:00+00:00,-1415.4342828531721
2025-09-09 16:00:00+00:00,-1425.318063886192
2025-09-09 17:00:00+00:00,-1435.068048838753
2025-09-09 18:00:00+00:00,-1391.3510226754136
2025-09-09 19:00:00+00:00,-1362.5006084161475
2025-09-10 13:00:00+00:00,-1444.8816755567411
2025-09-10 14:00:00+00:00,-1421.2605989446115
2025-09-10 15:00:00+00:00,-1442.3892613229993
2025-09-10 16:00:00+00:00,-1460.489797483455
2025-09-10 17:00:00+00:00,-1475.1152743114042
2025-09-10 18:00:00+00:00,-1479.165377858635
2025-09-10 19:00:00+00:00,-1476.2799355760822
2025-09-11 13:00:00+00:00,-1442.3756872859867
2025-09-11 14:00:00+00:00,-1436.4510017172413
2025-09-11 15:00:00+00:00,-1443.7297995600334
2025-09-11 16:00:00+00:00,-1427.9158274212095
2025-09-11 17:00:00+00:00,-1385.7630031209658
2025-09-11 18:00:00+00:00,-1405.5305651870053
2025-09-11 19:00:00+00:00,-1406.997246417538
2025-09-12 13:00:00+00:00,-1360.8261394527763
2025-09-12 14:00:00+00:00,-1330.7645544024365
2025-09-12 15:00:00+00:00,-1308.2390993466222
2025-09-12 16:00:00+00:00,-1263.9670338917385
2025-09-12 17:00:00+00:00,-1293.8144675440249
2025-09-12 18:00:00+00:00,-1304.3573696382582
2025-09-12 19:00:00+00:00,-1291.2023297147518
2025-09-15 13:00:00+00:00,-1363.9956547624251
2025-09-15 14:00:00+00:00,-1356.3439072431074
2025-09-15 15:00:00+00:00,-1350.9461957571032
2025-09-15 16:00:00+00:00,-1358.2749195891702
2025-09-15 17:00:00+00:00,-1363.476042074033
2025-09-15 18:00:00+00:00,-1375.4005625966024
2025-09-15 19:00:00+00:00,-1384.7515742195942
2025-09-16 13:00:00+00:00,-1401.4030958838641
2025-09-16 14:00:00+00:00,-1397.9911779664862
2025-09-16 15:00:00+00:00,-1392.0879964694352
2025-09-16 16:00:00+00:00,-1389.3362003138695
2025-09-16 17:00:00+00:00,-1387.2443254767604
2025-09-16 18:00:00+00:00,-1367.1193119185325
2025-09-16 19:00:00+00:00,-1375.4651086543015
2025-09-17 13:00:00+00:00,-1394.8005420579038
2025-09-17 14:00:00+00:00,-1376.0867782038756
2025-09-17 15:00:00+00:00,-1386.3209868255542
2025-09-17 16:00:00+00:00,-1393.6175522840879
2025-09-17 17:00:00+00:00,-1381.2287817785293
2025-09-17 18:00:00+00:00,-1377.6418605951417
2025-09-17 19:00:00+00:00,-1366.8418331044793
2025-09-18 13:00:00+00:00,-1455.9693001315018
2025-09-18 14:00:00+00:00,-1473.4263958396798
2025-09-18 15:00:00+00:00,-1434.4907882531961
2025-09-18 16:00:00+00:00,-1434.0298222601841
2025-09-18 17:00:00+00:00,-1439.3919571895647
2025-09-18 18:00:00+00:00,-1476.7332312867898
2025-09-18 19:00:00+00:00,-1463.6801665610285
2025-09-19 13:00:00+00:00,-1409.6362635874439
2025-09-19 14:00:00+00:00,-1392.4986675095147
2025-09-19 15:00:00+00:00,-1349.3666538774742
2025-09-19 16:00:00+00:00,-1377.4995134677008
2025-09-19 17:00:00+00:00,-1393.751661644892
2025-09-19 18:00:00+00:00,-1383.8605192175223
2025-09-19 19:00:00+00:00,-1396.3657560926172
2025-09-22 13:00:00+00:00,-1420.4457514796163
2025-09-22 14:00:00+00:00,-1475.307422120765
2025-09-22 15:00:00+00:00,-1485.6862064003421
2025-09-22 16:00:00+00:00,-1497.8892733561108
2025-09-22 17:00:00+00:00,-1494.952155221135
2025-09-22 18:00:00+00:00,-1501.2907226066172
2025-09-22 19:00:00+00:00,-1470.7350989629178
2025-09-23 13:00:00+00:00,-1626.5934903876264
2025-09-23 14:00:00+00:00,-1616.7306447859678
2025-09-23 15:00:00+00:00,-1615.34033051313
2025-09-23 16:00:00+00:00,-1617.3795306996012
2025-09-23 17:00:00+00:00,-1574.3835595567025
2025-09-23 18:00:00+00:00,-1575.1611566029792
2025-09-23 19:00:00+00:00,-1564.203722388238
2025-09-24 13:00:00+00:00,-1669.5524573721104
2025-09-24 14:00:00+00:00,-1681.689275640229
2025-09-24 15:00:00+00:00,-1685.1251526956723
2025-09-24 16:00:00+00:00,-1693.542102544688
2025-09-24 17:00:00+00:00,-1673.9502757118648
2025-09-24 18:00:00+00:00,-1671.147942338849
2025-09-24 19:00:00+00:00,-1666.7235270775436
2025-09-25 13:00:00+00:00,-1681.6438124304693
2025-09-25 14:00:00+00:00,-1653.0599098704681
2025-09-25 15:00:00+00:00,-1671.8546452008454
2025-09-25 16:00:00+00:00,-1682.728375925144
2025-09-25 17:00:00+00:00,-1656.5995649838762
2025-09-25 18:00:00+00:00,-1644.9523413816564
2025-09-25 19:00:00+00:00,-1673.455272465308
2025-09-26 13:00:00+00:00,-1772.2432910238078
2025-09-26 14:00:00+00:00,-1788.9307712012828
2025-09-26 15:00:00+00:00,-1771.188835284702
2025-09-26 16:00:00+00:00,-1776.0570474291776
2025-09-26 17:00:00+00:00,-1778.9315225969422
2025-09-26 18:00:00+00:00,-1766.109624630731
2025-09-26 19:00:00+00:00,-1783.1291462151155
2025-09-29 13:00:00+00:00,-1654.5943018206829
2025-09-29 14:00:00+00:00,-1659.37418109446
2025-09-29 15:00:00+00:00,-1629.1661905798471
2025-09-29 16:00:00+00:00,-1608.1911792516275
2025-09-29 17:00:00+00:00,-1622.953059082259
2025-09-29 18:00:00+00:00,-1590.1654019248583
2025-09-29 19:00:00+00:00,-1608.1983906925052
2025-09-30 13:00:00+00:00,-1518.4251079078895
2025-09-30 14:00:00+00:00,-1552.2001646361803
2025-09-30 15:00:00+00:00,-1577.4881172004227
2025-09-30 16:00:00+00:00,-1585.0276543744133
2025-09-30 17:00:00+00:00,-1546.8332752346741
2025-09-30 18:00:00+00:00,-1573.3079732466435
2025-09-30 19:00:00+00:00,-1554.5132379162662
2025-10-01 13:00:00+00:00,-1644.1064942293565
2025-10-01 14:00:00+00:00,-1627.3163813270417
2025-10-01 15:00:00+00:00,-1636.2801602285087
2025-10-01 16:00:00+00:00,-1625.479982784375
2025-10-01 17:00:00+00:00,-1595.5965252222397
2025-10-01 18:00:00+00:00,-1610.4901968387478
2025-10-01 19:00:00+00:00,-1582.608349872373
2025-10-02 13:00:00+00:00,-1513.2346908830557
2025-10-02 14:00:00+00:00,-1453.059725014333
2025-10-02 15:00:00+00:00,-1456.633514337686
2025-10-02 16:00:00+00:00,-1452.6448443993818
2025-10-02 17:00:00+00:00,-1460.472177198445
2025-10-02 18:00:00+00:00,-1464.669650863147
2025-10-02 19:00:00+00:00,-1437.5709079962878
2025-10-03 13:00:00+00:00,-1557.938229520358
2025-10-03 14:00:00+00:00,-1547.436616275111
2025-10-03 15:00:00+00:00,-1539.090669585871
2025-10-03 16:00:00+00:00,-1547.9844441257771
2025-10-03 17:00:00+00:00,-1534.4435875943377
2025-10-03 18:00:00+00:00,-1523.9638269152304
2025-10-03 19:00:00+00:00,-1506.161854953662
2025-10-06 13:00:00+00:00,-1704.9052863420002
2025-10-06 14:00:00+00:00,-1723.9939475490337
2025-10-06 15:00:00+00:00,-1709.5955549333266
2025-10-06 16:00:00+00:00,-1689.5748197833623
2025-10-06 17:00:00+00:00,-1690.888153675433
2025-10-06 18:00:00+00:00,-1683.0336045123108
2025-10-06 19:00:00+00:00,-1694.2932086463782
2025-10-07 13:00:00+00:00,-1639.6598385763116
2025-10-07 14:00:00+00:00,-1699.606773093476
2025-10-07 15:00:00+00:00,-1683.1843818092468
2025-10-07 16:00:00+00:00,-1701.77566519205
2025-10-07 17:00:00+00:00,-1701.1129384103963
2025-10-07 18:00:00+00:00,-1707.9809349449904
2025-10-07 19:00:00+00:00,-1726.8253895093364
2025-10-08 13:00:00+00:00,-1690.6007065448061
2025-10-08 14:00:00+00:00,-1698.0276499007082
2025-10-08 15:00:00+00:00,-1638.7282493867535
2025-10-08 16:00:00+00:00,-1658.26150896255
2025-10-08 17:00:00+00:00,-1615.940310823439
2025-10-08 18:00:00+00:00,-1607.1029666080813
2025-10-08 19:00:00+00:00,-1609.3287874791206
2025-10-09 13:00:00+00:00,-1606.4507065909174
2025-10-09 14:00:00+00:00,-1578.6779699206725
2025-10-09 15:00:00+00:00,-1599.757063018563
2025-10-09 16:00:00+00:00,-1569.8380857016393
2025-10-09 17:00:00+00:00,-1547.2018437951222
2025-10-09 18:00:00+00:00,-1540.7157563386975
2025-10-09 19:00:00+00:00,-1518.579757756273
2025-10-10 13:00:00+00:00,-1466.5153674186174
2025-10-10 14:00:00+00:00,-1393.7423810004807
2025-10-10 15:00:00+00:00,-1389.4097514386906
2025-10-10 16:00:00+00:00,-1372.9945696929574
2025-10-10 17:00:00+00:00,-1433.5381341599789
2025-10-10 18:00:00+00:00,-1411.0298930066333
2025-10-10 19:00:00+00:00,-1384.9839495535703
2025-10-13 13:00:00+00:00,-1457.1727848091211
2025-10-13 14:00:00+00:00,-1436.0858299665829
2025-10-13 15:00:00+00:00,-1408.390108655421
2025-10-13 16:00:00+00:00,-1410.5839586902757
2025-10-13 17:00:00+00:00,-1411.657611871997
2025-10-13 18:00:00+00:00,-1408.2609170936164
2025-10-13 19:00:00+00:00,-1407.3409149620634
2025-10-14 13:00:00+00:00,-1316.2343654569936
2025-10-14 14:00:00+00:00,-1281.305532915376
2025-10-14 15:00:00+00:00,-1299.598053558319
2025-10-14 16:00:00+00:00,-1294.880817251753
2025-10-14 17:00:00+00:00,-1274.5210312135364
2025-10-14 18:00:00+00:00,-1282.411156933282
2025-10-14 19:00:00+00:00,-1265.570976302553
2025-10-15 13:00:00+00:00,-1361.1980231595753
2025-10-15 14:00:00+00:00,-1333.5232372797755
2025-10-15 15:00:00+00:00,-1335.8854611534973
2025-10-15 16:00:00+00:00,-1333.4322291968183
2025-10-15 17:00:00+00:00,-1349.9285323723714
2025-10-15 18:00:00+00:00,-1351.756570722474
2025-10-15 19:00:00+00:00,-1331.5933736853988
2025-10-16 13:00:00+00:00,-1354.946939800048
2025-10-16 14:00:00+00:00,-1348.7948431456628
2025-10-16 15:00:00+00:00,-1317.6449979333572
2025-10-16 16:00:00+00:00,-1309.3705648709058
2025-10-16 17:00:00+00:00,-1268.35000219558
2025-10-16 18:00:00+00:00,-1225.8824327372133
2025-10-16 19:00:00+00:00,-1218.933162916945
2025-10-17 13:00:00+00:00,-1322.520571472182
2025-10-17 14:00:00+00:00,-1298.7654774386683
2025-10-17 15:00:00+00:00,-1327.2266907104877
2025-10-17 16:00:00+00:00,-1327.2266907104877
2025-10-17 17:00:00+00:00,-1327.2266907104877
2025-10-17 18:00:00+00:00,-1327.2266907104877
2025-10-17 19:00:00+00:00,-1327.2266907104877
2025-10-20 13:00:00+00:00,-1327.2266907104877
2025-10-20 14:00:00+00:00,-1327.2266907104877
2025-10-20 15:00:00+00:00,-1327.2266907104877
2025-10-20 16:00:00+00:00,-1327.2266907104877
