Date,0
2024-01-02 14:00:00+00:00,0.0
2024-01-02 15:00:00+00:00,0.0
2024-01-02 16:00:00+00:00,0.0
2024-01-02 17:00:00+00:00,0.0
2024-01-02 18:00:00+00:00,0.0
2024-01-02 19:00:00+00:00,0.0
2024-01-02 20:00:00+00:00,0.0
2024-01-03 14:00:00+00:00,0.0
2024-01-03 15:00:00+00:00,0.0
2024-01-03 16:00:00+00:00,0.0
2024-01-03 17:00:00+00:00,0.0
2024-01-03 18:00:00+00:00,0.0
2024-01-03 19:00:00+00:00,0.0
2024-01-03 20:00:00+00:00,0.0
2024-01-04 14:00:00+00:00,0.0
2024-01-04 15:00:00+00:00,0.0
2024-01-04 16:00:00+00:00,0.0
2024-01-04 17:00:00+00:00,0.0
2024-01-04 18:00:00+00:00,0.0
2024-01-04 19:00:00+00:00,0.0
2024-01-04 20:00:00+00:00,0.0
2024-01-05 14:00:00+00:00,0.0
2024-01-05 15:00:00+00:00,0.0
2024-01-05 16:00:00+00:00,0.0
2024-01-05 17:00:00+00:00,0.0
2024-01-05 18:00:00+00:00,0.0
2024-01-05 19:00:00+00:00,0.0
2024-01-05 20:00:00+00:00,0.0
2024-01-08 14:00:00+00:00,0.0
2024-01-08 15:00:00+00:00,0.0
2024-01-08 16:00:00+00:00,0.0
2024-01-08 17:00:00+00:00,0.0
2024-01-08 18:00:00+00:00,0.0
2024-01-08 19:00:00+00:00,0.0
2024-01-08 20:00:00+00:00,0.0
2024-01-09 14:00:00+00:00,0.0
2024-01-09 15:00:00+00:00,0.0
2024-01-09 16:00:00+00:00,0.0
2024-01-09 17:00:00+00:00,0.0
2024-01-09 18:00:00+00:00,0.0
2024-01-09 19:00:00+00:00,0.0
2024-01-09 20:00:00+00:00,0.0
2024-01-10 14:00:00+00:00,0.0
2024-01-10 15:00:00+00:00,0.0
2024-01-10 16:00:00+00:00,0.0
2024-01-10 17:00:00+00:00,0.0
2024-01-10 18:00:00+00:00,0.0
2024-01-10 19:00:00+00:00,0.0
2024-01-10 20:00:00+00:00,0.0
2024-01-11 14:00:00+00:00,0.0
2024-01-11 15:00:00+00:00,0.0
2024-01-11 16:00:00+00:00,0.0
2024-01-11 17:00:00+00:00,0.0
2024-01-11 18:00:00+00:00,0.0
2024-01-11 19:00:00+00:00,0.0
2024-01-11 20:00:00+00:00,0.0
2024-01-12 14:00:00+00:00,0.0
2024-01-12 15:00:00+00:00,0.0
2024-01-12 16:00:00+00:00,0.0
2024-01-12 17:00:00+00:00,0.0
2024-01-12 18:00:00+00:00,0.0
2024-01-12 19:00:00+00:00,0.0
2024-01-12 20:00:00+00:00,0.0
2024-01-16 14:00:00+00:00,0.0
2024-01-16 15:00:00+00:00,0.0
2024-01-16 16:00:00+00:00,0.0
2024-01-16 17:00:00+00:00,0.0
2024-01-16 18:00:00+00:00,0.0
2024-01-16 19:00:00+00:00,0.0
2024-01-16 20:00:00+00:00,0.0
2024-01-17 14:00:00+00:00,0.0
2024-01-17 15:00:00+00:00,0.0
2024-01-17 16:00:00+00:00,0.0
2024-01-17 17:00:00+00:00,0.0
2024-01-17 18:00:00+00:00,0.0
2024-01-17 19:00:00+00:00,0.0
2024-01-17 20:00:00+00:00,0.0
2024-01-18 14:00:00+00:00,0.0
2024-01-18 15:00:00+00:00,0.0
2024-01-18 16:00:00+00:00,0.0
2024-01-18 17:00:00+00:00,0.0
2024-01-18 18:00:00+00:00,0.0
2024-01-18 19:00:00+00:00,0.0
2024-01-18 20:00:00+00:00,0.0
2024-01-19 14:00:00+00:00,0.0
2024-01-19 15:00:00+00:00,0.0
2024-01-19 16:00:00+00:00,0.0
2024-01-19 17:00:00+00:00,0.0
2024-01-19 18:00:00+00:00,0.0
2024-01-19 19:00:00+00:00,0.0
2024-01-19 20:00:00+00:00,0.0
2024-01-22 14:00:00+00:00,0.0
2024-01-22 15:00:00+00:00,0.0
2024-01-22 16:00:00+00:00,0.0
2024-01-22 17:00:00+00:00,0.0
2024-01-22 18:00:00+00:00,0.0
2024-01-22 19:00:00+00:00,0.0
2024-01-22 20:00:00+00:00,0.0
2024-01-23 14:00:00+00:00,0.0
2024-01-23 15:00:00+00:00,0.0
2024-01-23 16:00:00+00:00,0.0
2024-01-23 17:00:00+00:00,0.0
2024-01-23 18:00:00+00:00,0.0
2024-01-23 19:00:00+00:00,0.0
2024-01-23 20:00:00+00:00,0.0
2024-01-24 14:00:00+00:00,0.0
2024-01-24 15:00:00+00:00,0.0
2024-01-24 16:00:00+00:00,0.0
2024-01-24 17:00:00+00:00,0.0
2024-01-24 18:00:00+00:00,0.0
2024-01-24 19:00:00+00:00,0.0
2024-01-24 20:00:00+00:00,0.0
2024-01-25 14:00:00+00:00,0.0
2024-01-25 15:00:00+00:00,0.0
2024-01-25 16:00:00+00:00,0.0
2024-01-25 17:00:00+00:00,0.0
2024-01-25 18:00:00+00:00,0.0
2024-01-25 19:00:00+00:00,0.0
2024-01-25 20:00:00+00:00,0.0
2024-01-26 14:00:00+00:00,0.0
2024-01-26 15:00:00+00:00,0.0
2024-01-26 16:00:00+00:00,0.0
2024-01-26 17:00:00+00:00,0.0
2024-01-26 18:00:00+00:00,0.0
2024-01-26 19:00:00+00:00,0.0
2024-01-26 20:00:00+00:00,0.0
2024-01-29 14:00:00+00:00,0.0
2024-01-29 15:00:00+00:00,0.0
2024-01-29 16:00:00+00:00,0.0
2024-01-29 17:00:00+00:00,0.0
2024-01-29 18:00:00+00:00,0.0
2024-01-29 19:00:00+00:00,0.0
2024-01-29 20:00:00+00:00,0.0
2024-01-30 14:00:00+00:00,0.0
2024-01-30 15:00:00+00:00,0.0
2024-01-30 16:00:00+00:00,0.0
2024-01-30 17:00:00+00:00,0.0
2024-01-30 18:00:00+00:00,0.0
2024-01-30 19:00:00+00:00,0.0
2024-01-30 20:00:00+00:00,0.0
2024-01-31 14:00:00+00:00,0.0
2024-01-31 15:00:00+00:00,0.0
2024-01-31 16:00:00+00:00,0.0
2024-01-31 17:00:00+00:00,0.0
2024-01-31 18:00:00+00:00,0.0
2024-01-31 19:00:00+00:00,0.0
2024-01-31 20:00:00+00:00,0.0
2024-02-01 14:00:00+00:00,0.0
2024-02-01 15:00:00+00:00,0.0
2024-02-01 16:00:00+00:00,0.0
2024-02-01 17:00:00+00:00,0.0
2024-02-01 18:00:00+00:00,0.0
2024-02-01 19:00:00+00:00,0.0
2024-02-01 20:00:00+00:00,0.0
2024-02-02 14:00:00+00:00,0.0
2024-02-02 15:00:00+00:00,0.0
2024-02-02 16:00:00+00:00,0.0
2024-02-02 17:00:00+00:00,0.0
2024-02-02 18:00:00+00:00,0.0
2024-02-02 19:00:00+00:00,0.0
2024-02-02 20:00:00+00:00,0.0
2024-02-05 14:00:00+00:00,0.0
2024-02-05 15:00:00+00:00,0.0
2024-02-05 16:00:00+00:00,0.0
2024-02-05 17:00:00+00:00,0.0
2024-02-05 18:00:00+00:00,0.0
2024-02-05 19:00:00+00:00,0.0
2024-02-05 20:00:00+00:00,0.0
2024-02-06 14:00:00+00:00,0.0
2024-02-06 15:00:00+00:00,0.0
2024-02-06 16:00:00+00:00,0.0
2024-02-06 17:00:00+00:00,0.0
2024-02-06 18:00:00+00:00,0.0
2024-02-06 19:00:00+00:00,0.0
2024-02-06 20:00:00+00:00,0.0
2024-02-07 14:00:00+00:00,0.0
2024-02-07 15:00:00+00:00,0.0
2024-02-07 16:00:00+00:00,0.0
2024-02-07 17:00:00+00:00,0.0
2024-02-07 18:00:00+00:00,0.0
2024-02-07 19:00:00+00:00,0.0
2024-02-07 20:00:00+00:00,0.0
2024-02-08 14:00:00+00:00,0.0
2024-02-08 15:00:00+00:00,0.0
2024-02-08 16:00:00+00:00,0.0
2024-02-08 17:00:00+00:00,0.0
2024-02-08 18:00:00+00:00,0.0
2024-02-08 19:00:00+00:00,0.0
2024-02-08 20:00:00+00:00,0.0
2024-02-09 14:00:00+00:00,0.0
2024-02-09 15:00:00+00:00,0.0
2024-02-09 16:00:00+00:00,0.0
2024-02-09 17:00:00+00:00,0.0
2024-02-09 18:00:00+00:00,0.0
2024-02-09 19:00:00+00:00,0.0
2024-02-09 20:00:00+00:00,0.0
2024-02-12 14:00:00+00:00,0.0
2024-02-12 15:00:00+00:00,0.0
2024-02-12 16:00:00+00:00,0.0
2024-02-12 17:00:00+00:00,0.0
2024-02-12 18:00:00+00:00,0.0
2024-02-12 19:00:00+00:00,0.0
2024-02-12 20:00:00+00:00,0.0
2024-02-13 14:00:00+00:00,0.0
2024-02-13 15:00:00+00:00,0.0
2024-02-13 16:00:00+00:00,0.0
2024-02-13 17:00:00+00:00,0.0
2024-02-13 18:00:00+00:00,0.0
2024-02-13 19:00:00+00:00,0.0
2024-02-13 20:00:00+00:00,0.0
2024-02-14 14:00:00+00:00,0.0
2024-02-14 15:00:00+00:00,0.0
2024-02-14 16:00:00+00:00,0.0
2024-02-14 17:00:00+00:00,0.0
2024-02-14 18:00:00+00:00,0.0
2024-02-14 19:00:00+00:00,0.0
2024-02-14 20:00:00+00:00,0.0
2024-02-15 14:00:00+00:00,0.0
2024-02-15 15:00:00+00:00,0.0
2024-02-15 16:00:00+00:00,0.0
2024-02-15 17:00:00+00:00,0.0
2024-02-15 18:00:00+00:00,0.0
2024-02-15 19:00:00+00:00,0.0
2024-02-15 20:00:00+00:00,0.0
2024-02-16 14:00:00+00:00,0.0
2024-02-16 15:00:00+00:00,0.0
2024-02-16 16:00:00+00:00,0.0
2024-02-16 17:00:00+00:00,0.0
2024-02-16 18:00:00+00:00,0.0
2024-02-16 19:00:00+00:00,0.0
2024-02-16 20:00:00+00:00,0.0
2024-02-20 14:00:00+00:00,0.0
2024-02-20 15:00:00+00:00,0.0
2024-02-20 16:00:00+00:00,0.0
2024-02-20 17:00:00+00:00,0.0
2024-02-20 18:00:00+00:00,0.0
2024-02-20 19:00:00+00:00,0.0
2024-02-20 20:00:00+00:00,0.0
2024-02-21 14:00:00+00:00,0.0
2024-02-21 15:00:00+00:00,0.0
2024-02-21 16:00:00+00:00,0.0
2024-02-21 17:00:00+00:00,0.0
2024-02-21 18:00:00+00:00,0.0
2024-02-21 19:00:00+00:00,0.0
2024-02-21 20:00:00+00:00,0.0
2024-02-22 14:00:00+00:00,0.0
2024-02-22 15:00:00+00:00,0.0
2024-02-22 16:00:00+00:00,0.0
2024-02-22 17:00:00+00:00,0.0
2024-02-22 18:00:00+00:00,0.0
2024-02-22 19:00:00+00:00,0.0
2024-02-22 20:00:00+00:00,0.0
2024-02-23 14:00:00+00:00,0.0
2024-02-23 15:00:00+00:00,0.0
2024-02-23 16:00:00+00:00,0.0
2024-02-23 17:00:00+00:00,0.0
2024-02-23 18:00:00+00:00,0.0
2024-02-23 19:00:00+00:00,0.0
2024-02-23 20:00:00+00:00,0.0
2024-02-26 14:00:00+00:00,0.0
2024-02-26 15:00:00+00:00,0.0
2024-02-26 16:00:00+00:00,0.0
2024-02-26 17:00:00+00:00,0.0
2024-02-26 18:00:00+00:00,0.0
2024-02-26 19:00:00+00:00,0.0
2024-02-26 20:00:00+00:00,0.0
2024-02-27 14:00:00+00:00,0.0
2024-02-27 15:00:00+00:00,0.0
2024-02-27 16:00:00+00:00,0.0
2024-02-27 17:00:00+00:00,0.0
2024-02-27 18:00:00+00:00,0.0
2024-02-27 19:00:00+00:00,0.0
2024-02-27 20:00:00+00:00,0.0
2024-02-28 14:00:00+00:00,0.0
2024-02-28 15:00:00+00:00,0.0
2024-02-28 16:00:00+00:00,0.0
2024-02-28 17:00:00+00:00,0.0
2024-02-28 18:00:00+00:00,0.0
2024-02-28 19:00:00+00:00,0.0
2024-02-28 20:00:00+00:00,0.0
2024-02-29 14:00:00+00:00,0.0
2024-02-29 15:00:00+00:00,0.0
2024-02-29 16:00:00+00:00,0.0
2024-02-29 17:00:00+00:00,0.0
2024-02-29 18:00:00+00:00,0.0
2024-02-29 19:00:00+00:00,0.0
2024-02-29 20:00:00+00:00,0.0
2024-03-01 14:00:00+00:00,0.0
2024-03-01 15:00:00+00:00,0.0
2024-03-01 16:00:00+00:00,0.0
2024-03-01 17:00:00+00:00,0.0
2024-03-01 18:00:00+00:00,0.0
2024-03-01 19:00:00+00:00,0.0
2024-03-01 20:00:00+00:00,0.0
2024-03-04 14:00:00+00:00,0.0
2024-03-04 15:00:00+00:00,0.0
2024-03-04 16:00:00+00:00,0.0
2024-03-04 17:00:00+00:00,0.0
2024-03-04 18:00:00+00:00,0.0
2024-03-04 19:00:00+00:00,0.0
2024-03-04 20:00:00+00:00,0.0
2024-03-05 14:00:00+00:00,0.0
2024-03-05 15:00:00+00:00,0.0
2024-03-05 16:00:00+00:00,0.0
2024-03-05 17:00:00+00:00,0.0
2024-03-05 18:00:00+00:00,0.0
2024-03-05 19:00:00+00:00,0.0
2024-03-05 20:00:00+00:00,0.0
2024-03-06 14:00:00+00:00,0.0
2024-03-06 15:00:00+00:00,0.0
2024-03-06 16:00:00+00:00,0.0
2024-03-06 17:00:00+00:00,0.0
2024-03-06 18:00:00+00:00,0.0
2024-03-06 19:00:00+00:00,0.0
2024-03-06 20:00:00+00:00,0.0
2024-03-07 14:00:00+00:00,0.0
2024-03-07 15:00:00+00:00,0.0
2024-03-07 16:00:00+00:00,0.0
2024-03-07 17:00:00+00:00,0.0
2024-03-07 18:00:00+00:00,0.0
2024-03-07 19:00:00+00:00,0.0
2024-03-07 20:00:00+00:00,0.0
2024-03-08 14:00:00+00:00,0.0
2024-03-08 15:00:00+00:00,0.0
2024-03-08 16:00:00+00:00,0.0
2024-03-08 17:00:00+00:00,0.0
2024-03-08 18:00:00+00:00,0.0
2024-03-08 19:00:00+00:00,0.0
2024-03-08 20:00:00+00:00,0.0
2024-03-11 13:00:00+00:00,0.0
2024-03-11 14:00:00+00:00,0.0
2024-03-11 15:00:00+00:00,0.0
2024-03-11 16:00:00+00:00,0.0
2024-03-11 17:00:00+00:00,0.0
2024-03-11 18:00:00+00:00,0.0
2024-03-11 19:00:00+00:00,0.0
2024-03-12 13:00:00+00:00,0.0
2024-03-12 14:00:00+00:00,0.0
2024-03-12 15:00:00+00:00,0.0
2024-03-12 16:00:00+00:00,0.0
2024-03-12 17:00:00+00:00,0.0
2024-03-12 18:00:00+00:00,0.0
2024-03-12 19:00:00+00:00,0.0
2024-03-13 13:00:00+00:00,0.0
2024-03-13 14:00:00+00:00,0.0
2024-03-13 15:00:00+00:00,0.0
2024-03-13 16:00:00+00:00,0.0
2024-03-13 17:00:00+00:00,0.0
2024-03-13 18:00:00+00:00,0.0
2024-03-13 19:00:00+00:00,0.0
2024-03-14 13:00:00+00:00,0.0
2024-03-14 14:00:00+00:00,0.0
2024-03-14 15:00:00+00:00,0.0
2024-03-14 16:00:00+00:00,0.0
2024-03-14 17:00:00+00:00,0.0
2024-03-14 18:00:00+00:00,0.0
2024-03-14 19:00:00+00:00,0.0
2024-03-15 13:00:00+00:00,0.0
2024-03-15 14:00:00+00:00,0.0
2024-03-15 15:00:00+00:00,0.0
2024-03-15 16:00:00+00:00,0.0
2024-03-15 17:00:00+00:00,0.0
2024-03-15 18:00:00+00:00,0.0
2024-03-15 19:00:00+00:00,0.0
2024-03-18 13:00:00+00:00,0.0
2024-03-18 14:00:00+00:00,0.0
2024-03-18 15:00:00+00:00,0.0
2024-03-18 16:00:00+00:00,0.0
2024-03-18 17:00:00+00:00,0.0
2024-03-18 18:00:00+00:00,0.0
2024-03-18 19:00:00+00:00,0.0
2024-03-19 13:00:00+00:00,0.0
2024-03-19 14:00:00+00:00,0.0
2024-03-19 15:00:00+00:00,0.0
2024-03-19 16:00:00+00:00,0.0
2024-03-19 17:00:00+00:00,0.0
2024-03-19 18:00:00+00:00,0.0
2024-03-19 19:00:00+00:00,0.0
2024-03-20 13:00:00+00:00,0.0
2024-03-20 14:00:00+00:00,0.0
2024-03-20 15:00:00+00:00,0.0
2024-03-20 16:00:00+00:00,0.0
2024-03-20 17:00:00+00:00,0.0
2024-03-20 18:00:00+00:00,0.0
2024-03-20 19:00:00+00:00,0.0
2024-03-21 13:00:00+00:00,0.0
2024-03-21 14:00:00+00:00,0.0
2024-03-21 15:00:00+00:00,0.0
2024-03-21 16:00:00+00:00,0.0
2024-03-21 17:00:00+00:00,0.0
2024-03-21 18:00:00+00:00,0.0
2024-03-21 19:00:00+00:00,0.0
2024-03-22 13:00:00+00:00,0.0
2024-03-22 14:00:00+00:00,0.0
2024-03-22 15:00:00+00:00,0.0
2024-03-22 16:00:00+00:00,0.0
2024-03-22 17:00:00+00:00,0.0
2024-03-22 18:00:00+00:00,0.0
2024-03-22 19:00:00+00:00,0.0
2024-03-25 13:00:00+00:00,0.0
2024-03-25 14:00:00+00:00,0.0
2024-03-25 15:00:00+00:00,0.0
2024-03-25 16:00:00+00:00,0.0
2024-03-25 17:00:00+00:00,0.0
2024-03-25 18:00:00+00:00,0.0
2024-03-25 19:00:00+00:00,0.0
2024-03-26 13:00:00+00:00,0.0
2024-03-26 14:00:00+00:00,0.0
2024-03-26 15:00:00+00:00,0.0
2024-03-26 16:00:00+00:00,0.0
2024-03-26 17:00:00+00:00,0.0
2024-03-26 18:00:00+00:00,0.0
2024-03-26 19:00:00+00:00,0.0
2024-03-27 13:00:00+00:00,0.0
2024-03-27 14:00:00+00:00,0.0
2024-03-27 15:00:00+00:00,0.0
2024-03-27 16:00:00+00:00,0.0
2024-03-27 17:00:00+00:00,0.0
2024-03-27 18:00:00+00:00,0.0
2024-03-27 19:00:00+00:00,0.0
2024-03-28 13:00:00+00:00,0.0
2024-03-28 14:00:00+00:00,0.0
2024-03-28 15:00:00+00:00,0.0
2024-03-28 16:00:00+00:00,0.0
2024-03-28 17:00:00+00:00,0.0
2024-03-28 18:00:00+00:00,0.0
2024-03-28 19:00:00+00:00,0.0
2024-04-01 13:00:00+00:00,0.0
2024-04-01 14:00:00+00:00,0.0
2024-04-01 15:00:00+00:00,0.0
2024-04-01 16:00:00+00:00,0.0
2024-04-01 17:00:00+00:00,0.0
2024-04-01 18:00:00+00:00,0.0
2024-04-01 19:00:00+00:00,0.0
2024-04-02 13:00:00+00:00,0.0
2024-04-02 14:00:00+00:00,0.0
2024-04-02 15:00:00+00:00,0.0
2024-04-02 16:00:00+00:00,0.0
2024-04-02 17:00:00+00:00,0.0
2024-04-02 18:00:00+00:00,0.0
2024-04-02 19:00:00+00:00,0.0
2024-04-03 13:00:00+00:00,0.0
2024-04-03 14:00:00+00:00,0.0
2024-04-03 15:00:00+00:00,0.0
2024-04-03 16:00:00+00:00,0.0
2024-04-03 17:00:00+00:00,0.0
2024-04-03 18:00:00+00:00,0.0
2024-04-03 19:00:00+00:00,0.0
2024-04-04 13:00:00+00:00,0.0
2024-04-04 14:00:00+00:00,0.0
2024-04-04 15:00:00+00:00,0.0
2024-04-04 16:00:00+00:00,0.0
2024-04-04 17:00:00+00:00,0.0
2024-04-04 18:00:00+00:00,0.0
2024-04-04 19:00:00+00:00,0.0
2024-04-05 13:00:00+00:00,0.0
2024-04-05 14:00:00+00:00,0.0
2024-04-05 15:00:00+00:00,0.0
2024-04-05 16:00:00+00:00,0.0
2024-04-05 17:00:00+00:00,0.0
2024-04-05 18:00:00+00:00,0.0
2024-04-05 19:00:00+00:00,0.0
2024-04-08 13:00:00+00:00,0.0
2024-04-08 14:00:00+00:00,0.0
2024-04-08 15:00:00+00:00,0.0
2024-04-08 16:00:00+00:00,0.0
2024-04-08 17:00:00+00:00,0.0
2024-04-08 18:00:00+00:00,0.0
2024-04-08 19:00:00+00:00,0.0
2024-04-09 13:00:00+00:00,0.0
2024-04-09 14:00:00+00:00,0.0
2024-04-09 15:00:00+00:00,0.0
2024-04-09 16:00:00+00:00,0.0
2024-04-09 17:00:00+00:00,0.0
2024-04-09 18:00:00+00:00,0.0
2024-04-09 19:00:00+00:00,0.0
2024-04-10 13:00:00+00:00,0.0
2024-04-10 14:00:00+00:00,0.0
2024-04-10 15:00:00+00:00,0.0
2024-04-10 16:00:00+00:00,0.0
2024-04-10 17:00:00+00:00,0.0
2024-04-10 18:00:00+00:00,0.0
2024-04-10 19:00:00+00:00,0.0
2024-04-11 13:00:00+00:00,0.0
2024-04-11 14:00:00+00:00,0.0
2024-04-11 15:00:00+00:00,0.0
2024-04-11 16:00:00+00:00,0.0
2024-04-11 17:00:00+00:00,0.0
2024-04-11 18:00:00+00:00,0.0
2024-04-11 19:00:00+00:00,0.0
2024-04-12 13:00:00+00:00,0.0
2024-04-12 14:00:00+00:00,0.0
2024-04-12 15:00:00+00:00,0.0
2024-04-12 16:00:00+00:00,0.0
2024-04-12 17:00:00+00:00,0.0
2024-04-12 18:00:00+00:00,0.0
2024-04-12 19:00:00+00:00,0.0
2024-04-15 13:00:00+00:00,0.0
2024-04-15 14:00:00+00:00,0.0
2024-04-15 15:00:00+00:00,0.0
2024-04-15 16:00:00+00:00,0.0
2024-04-15 17:00:00+00:00,0.0
2024-04-15 18:00:00+00:00,0.0
2024-04-15 19:00:00+00:00,0.0
2024-04-16 13:00:00+00:00,0.0
2024-04-16 14:00:00+00:00,0.0
2024-04-16 15:00:00+00:00,0.0
2024-04-16 16:00:00+00:00,0.0
2024-04-16 17:00:00+00:00,0.0
2024-04-16 18:00:00+00:00,0.0
2024-04-16 19:00:00+00:00,0.0
2024-04-17 13:00:00+00:00,0.0
2024-04-17 14:00:00+00:00,0.0
2024-04-17 15:00:00+00:00,0.0
2024-04-17 16:00:00+00:00,0.0
2024-04-17 17:00:00+00:00,0.0
2024-04-17 18:00:00+00:00,0.0
2024-04-17 19:00:00+00:00,0.0
2024-04-18 13:00:00+00:00,0.0
2024-04-18 14:00:00+00:00,0.0
2024-04-18 15:00:00+00:00,0.0
2024-04-18 16:00:00+00:00,0.0
2024-04-18 17:00:00+00:00,0.0
2024-04-18 18:00:00+00:00,0.0
2024-04-18 19:00:00+00:00,0.0
2024-04-19 13:00:00+00:00,0.0
2024-04-19 14:00:00+00:00,0.0
2024-04-19 15:00:00+00:00,0.0
2024-04-19 16:00:00+00:00,0.0
2024-04-19 17:00:00+00:00,0.0
2024-04-19 18:00:00+00:00,0.0
2024-04-19 19:00:00+00:00,0.0
2024-04-22 13:00:00+00:00,0.0
2024-04-22 14:00:00+00:00,0.0
2024-04-22 15:00:00+00:00,0.0
2024-04-22 16:00:00+00:00,0.0
2024-04-22 17:00:00+00:00,0.0
2024-04-22 18:00:00+00:00,0.0
2024-04-22 19:00:00+00:00,0.0
2024-04-23 13:00:00+00:00,0.0
2024-04-23 14:00:00+00:00,0.0
2024-04-23 15:00:00+00:00,0.0
2024-04-23 16:00:00+00:00,0.0
2024-04-23 17:00:00+00:00,0.0
2024-04-23 18:00:00+00:00,0.0
2024-04-23 19:00:00+00:00,0.0
2024-04-24 13:00:00+00:00,0.0
2024-04-24 14:00:00+00:00,0.0
2024-04-24 15:00:00+00:00,0.0
2024-04-24 16:00:00+00:00,0.0
2024-04-24 17:00:00+00:00,0.0
2024-04-24 18:00:00+00:00,0.0
2024-04-24 19:00:00+00:00,0.0
2024-04-25 13:00:00+00:00,0.0
2024-04-25 14:00:00+00:00,0.0
2024-04-25 15:00:00+00:00,0.0
2024-04-25 16:00:00+00:00,0.0
2024-04-25 17:00:00+00:00,0.0
2024-04-25 18:00:00+00:00,0.0
2024-04-25 19:00:00+00:00,0.0
2024-04-26 13:00:00+00:00,0.0
2024-04-26 14:00:00+00:00,0.0
2024-04-26 15:00:00+00:00,0.0
2024-04-26 16:00:00+00:00,0.0
2024-04-26 17:00:00+00:00,0.0
2024-04-26 18:00:00+00:00,0.0
2024-04-26 19:00:00+00:00,0.0
2024-04-29 13:00:00+00:00,0.0
2024-04-29 14:00:00+00:00,0.0
2024-04-29 15:00:00+00:00,0.0
2024-04-29 16:00:00+00:00,0.0
2024-04-29 17:00:00+00:00,0.0
2024-04-29 18:00:00+00:00,0.0
2024-04-29 19:00:00+00:00,0.0
2024-04-30 13:00:00+00:00,0.0
2024-04-30 14:00:00+00:00,0.0
2024-04-30 15:00:00+00:00,0.0
2024-04-30 16:00:00+00:00,0.0
2024-04-30 17:00:00+00:00,0.0
2024-04-30 18:00:00+00:00,0.0
2024-04-30 19:00:00+00:00,0.0
2024-05-01 13:00:00+00:00,0.0
2024-05-01 14:00:00+00:00,0.0
2024-05-01 15:00:00+00:00,0.0
2024-05-01 16:00:00+00:00,0.0
2024-05-01 17:00:00+00:00,0.0
2024-05-01 18:00:00+00:00,0.0
2024-05-01 19:00:00+00:00,0.0
2024-05-02 13:00:00+00:00,0.0
2024-05-02 14:00:00+00:00,0.0
2024-05-02 15:00:00+00:00,0.0
2024-05-02 16:00:00+00:00,0.0
2024-05-02 17:00:00+00:00,0.0
2024-05-02 18:00:00+00:00,0.0
2024-05-02 19:00:00+00:00,0.0
2024-05-03 13:00:00+00:00,0.0
2024-05-03 14:00:00+00:00,0.0
2024-05-03 15:00:00+00:00,0.0
2024-05-03 16:00:00+00:00,0.0
2024-05-03 17:00:00+00:00,0.0
2024-05-03 18:00:00+00:00,0.0
2024-05-03 19:00:00+00:00,0.0
2024-05-06 13:00:00+00:00,0.0
2024-05-06 14:00:00+00:00,0.0
2024-05-06 15:00:00+00:00,0.0
2024-05-06 16:00:00+00:00,0.0
2024-05-06 17:00:00+00:00,0.0
2024-05-06 18:00:00+00:00,0.0
2024-05-06 19:00:00+00:00,0.0
2024-05-07 13:00:00+00:00,0.0
2024-05-07 14:00:00+00:00,0.0
2024-05-07 15:00:00+00:00,0.0
2024-05-07 16:00:00+00:00,0.0
2024-05-07 17:00:00+00:00,0.0
2024-05-07 18:00:00+00:00,0.0
2024-05-07 19:00:00+00:00,0.0
2024-05-08 13:00:00+00:00,0.0
2024-05-08 14:00:00+00:00,0.0
2024-05-08 15:00:00+00:00,0.0
2024-05-08 16:00:00+00:00,0.0
2024-05-08 17:00:00+00:00,0.0
2024-05-08 18:00:00+00:00,0.0
2024-05-08 19:00:00+00:00,0.0
2024-05-09 13:00:00+00:00,0.0
2024-05-09 14:00:00+00:00,0.0
2024-05-09 15:00:00+00:00,0.0
2024-05-09 16:00:00+00:00,0.0
2024-05-09 17:00:00+00:00,0.0
2024-05-09 18:00:00+00:00,0.0
2024-05-09 19:00:00+00:00,0.0
2024-05-10 13:00:00+00:00,0.0
2024-05-10 14:00:00+00:00,0.0
2024-05-10 15:00:00+00:00,0.0
2024-05-10 16:00:00+00:00,0.0
2024-05-10 17:00:00+00:00,0.0
2024-05-10 18:00:00+00:00,0.0
2024-05-10 19:00:00+00:00,0.0
2024-05-13 13:00:00+00:00,0.0
2024-05-13 14:00:00+00:00,0.0
2024-05-13 15:00:00+00:00,0.0
2024-05-13 16:00:00+00:00,0.0
2024-05-13 17:00:00+00:00,0.0
2024-05-13 18:00:00+00:00,0.0
2024-05-13 19:00:00+00:00,0.0
2024-05-14 13:00:00+00:00,0.0
2024-05-14 14:00:00+00:00,0.0
2024-05-14 15:00:00+00:00,0.0
2024-05-14 16:00:00+00:00,0.0
2024-05-14 17:00:00+00:00,0.0
2024-05-14 18:00:00+00:00,0.0
2024-05-14 19:00:00+00:00,0.0
2024-05-15 13:00:00+00:00,0.0
2024-05-15 14:00:00+00:00,0.0
2024-05-15 15:00:00+00:00,0.0
2024-05-15 16:00:00+00:00,0.0
2024-05-15 17:00:00+00:00,0.0
2024-05-15 18:00:00+00:00,0.0
2024-05-15 19:00:00+00:00,0.0
2024-05-16 13:00:00+00:00,0.0
2024-05-16 14:00:00+00:00,0.0
2024-05-16 15:00:00+00:00,0.0
2024-05-16 16:00:00+00:00,0.0
2024-05-16 17:00:00+00:00,0.0
2024-05-16 18:00:00+00:00,0.0
2024-05-16 19:00:00+00:00,0.0
2024-05-17 13:00:00+00:00,0.0
2024-05-17 14:00:00+00:00,0.0
2024-05-17 15:00:00+00:00,0.0
2024-05-17 16:00:00+00:00,0.0
2024-05-17 17:00:00+00:00,0.0
2024-05-17 18:00:00+00:00,0.0
2024-05-17 19:00:00+00:00,0.0
2024-05-20 13:00:00+00:00,0.0
2024-05-20 14:00:00+00:00,0.0
2024-05-20 15:00:00+00:00,0.0
2024-05-20 16:00:00+00:00,0.0
2024-05-20 17:00:00+00:00,0.0
2024-05-20 18:00:00+00:00,0.0
2024-05-20 19:00:00+00:00,0.0
2024-05-21 13:00:00+00:00,0.0
2024-05-21 14:00:00+00:00,0.0
2024-05-21 15:00:00+00:00,0.0
2024-05-21 16:00:00+00:00,0.0
2024-05-21 17:00:00+00:00,0.0
2024-05-21 18:00:00+00:00,0.0
2024-05-21 19:00:00+00:00,0.0
2024-05-22 13:00:00+00:00,0.0
2024-05-22 14:00:00+00:00,0.0
2024-05-22 15:00:00+00:00,0.0
2024-05-22 16:00:00+00:00,0.0
2024-05-22 17:00:00+00:00,0.0
2024-05-22 18:00:00+00:00,0.0
2024-05-22 19:00:00+00:00,0.0
2024-05-23 13:00:00+00:00,0.0
2024-05-23 14:00:00+00:00,0.0
2024-05-23 15:00:00+00:00,0.0
2024-05-23 16:00:00+00:00,0.0
2024-05-23 17:00:00+00:00,0.0
2024-05-23 18:00:00+00:00,0.0
2024-05-23 19:00:00+00:00,0.0
2024-05-24 13:00:00+00:00,0.0
2024-05-24 14:00:00+00:00,0.0
2024-05-24 15:00:00+00:00,0.0
2024-05-24 16:00:00+00:00,0.0
2024-05-24 17:00:00+00:00,0.0
2024-05-24 18:00:00+00:00,0.0
2024-05-24 19:00:00+00:00,0.0
2024-05-28 13:00:00+00:00,0.0
2024-05-28 14:00:00+00:00,0.0
2024-05-28 15:00:00+00:00,0.0
2024-05-28 16:00:00+00:00,0.0
2024-05-28 17:00:00+00:00,0.0
2024-05-28 18:00:00+00:00,0.0
2024-05-28 19:00:00+00:00,0.0
2024-05-29 13:00:00+00:00,0.0
2024-05-29 14:00:00+00:00,0.0
2024-05-29 15:00:00+00:00,0.0
2024-05-29 16:00:00+00:00,0.0
2024-05-29 17:00:00+00:00,0.0
2024-05-29 18:00:00+00:00,0.0
2024-05-29 19:00:00+00:00,0.0
2024-05-30 13:00:00+00:00,0.0
2024-05-30 14:00:00+00:00,0.0
2024-05-30 15:00:00+00:00,0.0
2024-05-30 16:00:00+00:00,0.0
2024-05-30 17:00:00+00:00,0.0
2024-05-30 18:00:00+00:00,0.0
2024-05-30 19:00:00+00:00,0.0
2024-05-31 13:00:00+00:00,0.0
2024-05-31 14:00:00+00:00,0.0
2024-05-31 15:00:00+00:00,0.0
2024-05-31 16:00:00+00:00,0.0
2024-05-31 17:00:00+00:00,0.0
2024-05-31 18:00:00+00:00,0.0
2024-05-31 19:00:00+00:00,0.0
2024-06-03 13:00:00+00:00,0.0
2024-06-03 14:00:00+00:00,0.0
2024-06-03 15:00:00+00:00,0.0
2024-06-03 16:00:00+00:00,0.0
2024-06-03 17:00:00+00:00,0.0
2024-06-03 18:00:00+00:00,0.0
2024-06-03 19:00:00+00:00,0.0
2024-06-04 13:00:00+00:00,0.0
2024-06-04 14:00:00+00:00,0.0
2024-06-04 15:00:00+00:00,0.0
2024-06-04 16:00:00+00:00,0.0
2024-06-04 17:00:00+00:00,0.0
2024-06-04 18:00:00+00:00,0.0
2024-06-04 19:00:00+00:00,0.0
2024-06-05 13:00:00+00:00,0.0
2024-06-05 14:00:00+00:00,0.0
2024-06-05 15:00:00+00:00,0.0
2024-06-05 16:00:00+00:00,0.0
2024-06-05 17:00:00+00:00,0.0
2024-06-05 18:00:00+00:00,0.0
2024-06-05 19:00:00+00:00,0.0
2024-06-06 13:00:00+00:00,0.0
2024-06-06 14:00:00+00:00,0.0
2024-06-06 15:00:00+00:00,0.0
2024-06-06 16:00:00+00:00,0.0
2024-06-06 17:00:00+00:00,0.0
2024-06-06 18:00:00+00:00,0.0
2024-06-06 19:00:00+00:00,0.0
2024-06-07 13:00:00+00:00,0.0
2024-06-07 14:00:00+00:00,0.0
2024-06-07 15:00:00+00:00,0.0
2024-06-07 16:00:00+00:00,0.0
2024-06-07 17:00:00+00:00,0.0
2024-06-07 18:00:00+00:00,0.0
2024-06-07 19:00:00+00:00,0.0
2024-06-10 13:00:00+00:00,0.0
2024-06-10 14:00:00+00:00,0.0
2024-06-10 15:00:00+00:00,0.0
2024-06-10 16:00:00+00:00,0.0
2024-06-10 17:00:00+00:00,0.0
2024-06-10 18:00:00+00:00,0.0
2024-06-10 19:00:00+00:00,0.0
2024-06-11 13:00:00+00:00,0.0
2024-06-11 14:00:00+00:00,0.0
2024-06-11 15:00:00+00:00,0.0
2024-06-11 16:00:00+00:00,0.0
2024-06-11 17:00:00+00:00,0.0
2024-06-11 18:00:00+00:00,0.0
2024-06-11 19:00:00+00:00,0.0
2024-06-12 13:00:00+00:00,0.0
2024-06-12 14:00:00+00:00,0.0
2024-06-12 15:00:00+00:00,0.0
2024-06-12 16:00:00+00:00,0.0
2024-06-12 17:00:00+00:00,0.0
2024-06-12 18:00:00+00:00,0.0
2024-06-12 19:00:00+00:00,0.0
2024-06-13 13:00:00+00:00,0.0
2024-06-13 14:00:00+00:00,0.0
2024-06-13 15:00:00+00:00,0.0
2024-06-13 16:00:00+00:00,0.0
2024-06-13 17:00:00+00:00,0.0
2024-06-13 18:00:00+00:00,0.0
2024-06-13 19:00:00+00:00,0.0
2024-06-14 13:00:00+00:00,0.0
2024-06-14 14:00:00+00:00,0.0
2024-06-14 15:00:00+00:00,0.0
2024-06-14 16:00:00+00:00,0.0
2024-06-14 17:00:00+00:00,0.0
2024-06-14 18:00:00+00:00,0.0
2024-06-14 19:00:00+00:00,0.0
2024-06-17 13:00:00+00:00,0.0
2024-06-17 14:00:00+00:00,0.0
2024-06-17 15:00:00+00:00,0.0
2024-06-17 16:00:00+00:00,0.0
2024-06-17 17:00:00+00:00,0.0
2024-06-17 18:00:00+00:00,0.0
2024-06-17 19:00:00+00:00,0.0
2024-06-18 13:00:00+00:00,0.0
2024-06-18 14:00:00+00:00,0.0
2024-06-18 15:00:00+00:00,0.0
2024-06-18 16:00:00+00:00,0.0
2024-06-18 17:00:00+00:00,0.0
2024-06-18 18:00:00+00:00,0.0
2024-06-18 19:00:00+00:00,0.0
2024-06-20 13:00:00+00:00,0.0
2024-06-20 14:00:00+00:00,0.0
2024-06-20 15:00:00+00:00,0.0
2024-06-20 16:00:00+00:00,0.0
2024-06-20 17:00:00+00:00,0.0
2024-06-20 18:00:00+00:00,0.0
2024-06-20 19:00:00+00:00,0.0
2024-06-21 13:00:00+00:00,0.0
2024-06-21 14:00:00+00:00,0.0
2024-06-21 15:00:00+00:00,0.0
2024-06-21 16:00:00+00:00,0.0
2024-06-21 17:00:00+00:00,0.0
2024-06-21 18:00:00+00:00,0.0
2024-06-21 19:00:00+00:00,0.0
2024-06-24 13:00:00+00:00,0.0
2024-06-24 14:00:00+00:00,0.0
2024-06-24 15:00:00+00:00,0.0
2024-06-24 16:00:00+00:00,0.0
2024-06-24 17:00:00+00:00,0.0
2024-06-24 18:00:00+00:00,0.0
2024-06-24 19:00:00+00:00,0.0
2024-06-25 13:00:00+00:00,0.0
2024-06-25 14:00:00+00:00,0.0
2024-06-25 15:00:00+00:00,0.0
2024-06-25 16:00:00+00:00,0.0
2024-06-25 17:00:00+00:00,0.0
2024-06-25 18:00:00+00:00,0.0
2024-06-25 19:00:00+00:00,0.0
2024-06-26 13:00:00+00:00,0.0
2024-06-26 14:00:00+00:00,0.0
2024-06-26 15:00:00+00:00,0.0
2024-06-26 16:00:00+00:00,0.0
2024-06-26 17:00:00+00:00,0.0
2024-06-26 18:00:00+00:00,0.0
2024-06-26 19:00:00+00:00,0.0
2024-06-27 13:00:00+00:00,0.0
2024-06-27 14:00:00+00:00,0.0
2024-06-27 15:00:00+00:00,0.0
2024-06-27 16:00:00+00:00,0.0
2024-06-27 17:00:00+00:00,0.0
2024-06-27 18:00:00+00:00,0.0
2024-06-27 19:00:00+00:00,0.0
2024-06-28 13:00:00+00:00,0.0
2024-06-28 14:00:00+00:00,0.0
2024-06-28 15:00:00+00:00,0.0
2024-06-28 16:00:00+00:00,0.0
2024-06-28 17:00:00+00:00,0.0
2024-06-28 18:00:00+00:00,0.0
2024-06-28 19:00:00+00:00,0.0
2024-07-01 13:00:00+00:00,0.0
2024-07-01 14:00:00+00:00,0.0
2024-07-01 15:00:00+00:00,0.0
2024-07-01 16:00:00+00:00,0.0
2024-07-01 17:00:00+00:00,0.0
2024-07-01 18:00:00+00:00,0.0
2024-07-01 19:00:00+00:00,0.0
2024-07-02 13:00:00+00:00,0.0
2024-07-02 14:00:00+00:00,0.0
2024-07-02 15:00:00+00:00,0.0
2024-07-02 16:00:00+00:00,0.0
2024-07-02 17:00:00+00:00,0.0
2024-07-02 18:00:00+00:00,0.0
2024-07-02 19:00:00+00:00,0.0
2024-07-03 13:00:00+00:00,0.0
2024-07-03 14:00:00+00:00,0.0
2024-07-03 15:00:00+00:00,0.0
2024-07-05 13:00:00+00:00,0.0
2024-07-05 14:00:00+00:00,0.0
2024-07-05 15:00:00+00:00,0.0
2024-07-05 16:00:00+00:00,0.0
2024-07-05 17:00:00+00:00,0.0
2024-07-05 18:00:00+00:00,0.0
2024-07-05 19:00:00+00:00,0.0
2024-07-08 13:00:00+00:00,0.0
2024-07-08 14:00:00+00:00,0.0
2024-07-08 15:00:00+00:00,0.0
2024-07-08 16:00:00+00:00,0.0
2024-07-08 17:00:00+00:00,0.0
2024-07-08 18:00:00+00:00,0.0
2024-07-08 19:00:00+00:00,0.0
2024-07-09 13:00:00+00:00,0.0
2024-07-09 14:00:00+00:00,0.0
2024-07-09 15:00:00+00:00,0.0
2024-07-09 16:00:00+00:00,0.0
2024-07-09 17:00:00+00:00,0.0
2024-07-09 18:00:00+00:00,0.0
2024-07-09 19:00:00+00:00,0.0
2024-07-10 13:00:00+00:00,0.0
2024-07-10 14:00:00+00:00,0.0
2024-07-10 15:00:00+00:00,0.0
2024-07-10 16:00:00+00:00,0.0
2024-07-10 17:00:00+00:00,0.0
2024-07-10 18:00:00+00:00,0.0
2024-07-10 19:00:00+00:00,0.0
2024-07-11 13:00:00+00:00,0.0
2024-07-11 14:00:00+00:00,0.0
2024-07-11 15:00:00+00:00,0.0
2024-07-11 16:00:00+00:00,0.0
2024-07-11 17:00:00+00:00,0.0
2024-07-11 18:00:00+00:00,0.0
2024-07-11 19:00:00+00:00,0.0
2024-07-12 13:00:00+00:00,0.0
2024-07-12 14:00:00+00:00,0.0
2024-07-12 15:00:00+00:00,0.0
2024-07-12 16:00:00+00:00,0.0
2024-07-12 17:00:00+00:00,0.0
2024-07-12 18:00:00+00:00,0.0
2024-07-12 19:00:00+00:00,0.0
2024-07-15 13:00:00+00:00,0.0
2024-07-15 14:00:00+00:00,0.0
2024-07-15 15:00:00+00:00,0.0
2024-07-15 16:00:00+00:00,0.0
2024-07-15 17:00:00+00:00,0.0
2024-07-15 18:00:00+00:00,0.0
2024-07-15 19:00:00+00:00,0.0
2024-07-16 13:00:00+00:00,0.0
2024-07-16 14:00:00+00:00,0.0
2024-07-16 15:00:00+00:00,0.0
2024-07-16 16:00:00+00:00,0.0
2024-07-16 17:00:00+00:00,0.0
2024-07-16 18:00:00+00:00,0.0
2024-07-16 19:00:00+00:00,0.0
2024-07-17 13:00:00+00:00,0.0
2024-07-17 14:00:00+00:00,0.0
2024-07-17 15:00:00+00:00,0.0
2024-07-17 16:00:00+00:00,0.0
2024-07-17 17:00:00+00:00,0.0
2024-07-17 18:00:00+00:00,0.0
2024-07-17 19:00:00+00:00,0.0
2024-07-18 13:00:00+00:00,0.0
2024-07-18 14:00:00+00:00,0.0
2024-07-18 15:00:00+00:00,0.0
2024-07-18 16:00:00+00:00,0.0
2024-07-18 17:00:00+00:00,0.0
2024-07-18 18:00:00+00:00,0.0
2024-07-18 19:00:00+00:00,0.0
2024-07-19 13:00:00+00:00,0.0
2024-07-19 14:00:00+00:00,0.0
2024-07-19 15:00:00+00:00,0.0
2024-07-19 16:00:00+00:00,0.0
2024-07-19 17:00:00+00:00,0.0
2024-07-19 18:00:00+00:00,0.0
2024-07-19 19:00:00+00:00,0.0
2024-07-22 13:00:00+00:00,0.0
2024-07-22 14:00:00+00:00,0.0
2024-07-22 15:00:00+00:00,0.0
2024-07-22 16:00:00+00:00,0.0
2024-07-22 17:00:00+00:00,0.0
2024-07-22 18:00:00+00:00,0.0
2024-07-22 19:00:00+00:00,0.0
2024-07-23 13:00:00+00:00,0.0
2024-07-23 14:00:00+00:00,0.0
2024-07-23 15:00:00+00:00,0.0
2024-07-23 16:00:00+00:00,0.0
2024-07-23 17:00:00+00:00,0.0
2024-07-23 18:00:00+00:00,0.0
2024-07-23 19:00:00+00:00,0.0
2024-07-24 13:00:00+00:00,0.0
2024-07-24 14:00:00+00:00,0.0
2024-07-24 15:00:00+00:00,0.0
2024-07-24 16:00:00+00:00,0.0
2024-07-24 17:00:00+00:00,0.0
2024-07-24 18:00:00+00:00,0.0
2024-07-24 19:00:00+00:00,0.0
2024-07-25 13:00:00+00:00,0.0
2024-07-25 14:00:00+00:00,0.0
2024-07-25 15:00:00+00:00,0.0
2024-07-25 16:00:00+00:00,0.0
2024-07-25 17:00:00+00:00,0.0
2024-07-25 18:00:00+00:00,0.0
2024-07-25 19:00:00+00:00,0.0
2024-07-26 13:00:00+00:00,0.0
2024-07-26 14:00:00+00:00,0.0
2024-07-26 15:00:00+00:00,0.0
2024-07-26 16:00:00+00:00,0.0
2024-07-26 17:00:00+00:00,0.0
2024-07-26 18:00:00+00:00,0.0
2024-07-26 19:00:00+00:00,0.0
2024-07-29 13:00:00+00:00,0.0
2024-07-29 14:00:00+00:00,0.0
2024-07-29 15:00:00+00:00,0.0
2024-07-29 16:00:00+00:00,0.0
2024-07-29 17:00:00+00:00,0.0
2024-07-29 18:00:00+00:00,0.0
2024-07-29 19:00:00+00:00,0.0
2024-07-30 13:00:00+00:00,0.0
2024-07-30 14:00:00+00:00,0.0
2024-07-30 15:00:00+00:00,0.0
2024-07-30 16:00:00+00:00,0.0
2024-07-30 17:00:00+00:00,0.0
2024-07-30 18:00:00+00:00,0.0
2024-07-30 19:00:00+00:00,0.0
2024-07-31 13:00:00+00:00,0.0
2024-07-31 14:00:00+00:00,0.0
2024-07-31 15:00:00+00:00,0.0
2024-07-31 16:00:00+00:00,0.0
2024-07-31 17:00:00+00:00,0.0
2024-07-31 18:00:00+00:00,0.0
2024-07-31 19:00:00+00:00,0.0
2024-08-01 13:00:00+00:00,0.0
2024-08-01 14:00:00+00:00,0.0
2024-08-01 15:00:00+00:00,0.0
2024-08-01 16:00:00+00:00,0.0
2024-08-01 17:00:00+00:00,0.0
2024-08-01 18:00:00+00:00,0.0
2024-08-01 19:00:00+00:00,0.0
2024-08-02 13:00:00+00:00,0.0
2024-08-02 14:00:00+00:00,0.0
2024-08-02 15:00:00+00:00,0.0
2024-08-02 16:00:00+00:00,0.0
2024-08-02 17:00:00+00:00,0.0
2024-08-02 18:00:00+00:00,0.0
2024-08-02 19:00:00+00:00,0.0
2024-08-05 13:00:00+00:00,0.0
2024-08-05 14:00:00+00:00,0.0
2024-08-05 15:00:00+00:00,0.0
2024-08-05 16:00:00+00:00,0.0
2024-08-05 17:00:00+00:00,0.0
2024-08-05 18:00:00+00:00,0.0
2024-08-05 19:00:00+00:00,0.0
2024-08-06 13:00:00+00:00,0.0
2024-08-06 14:00:00+00:00,0.0
2024-08-06 15:00:00+00:00,0.0
2024-08-06 16:00:00+00:00,0.0
2024-08-06 17:00:00+00:00,0.0
2024-08-06 18:00:00+00:00,0.0
2024-08-06 19:00:00+00:00,0.0
2024-08-07 13:00:00+00:00,0.0
2024-08-07 14:00:00+00:00,0.0
2024-08-07 15:00:00+00:00,0.0
2024-08-07 16:00:00+00:00,0.0
2024-08-07 17:00:00+00:00,0.0
2024-08-07 18:00:00+00:00,0.0
2024-08-07 19:00:00+00:00,0.0
2024-08-08 13:00:00+00:00,0.0
2024-08-08 14:00:00+00:00,0.0
2024-08-08 15:00:00+00:00,0.0
2024-08-08 16:00:00+00:00,0.0
2024-08-08 17:00:00+00:00,0.0
2024-08-08 18:00:00+00:00,0.0
2024-08-08 19:00:00+00:00,0.0
2024-08-09 13:00:00+00:00,0.0
2024-08-09 14:00:00+00:00,0.0
2024-08-09 15:00:00+00:00,0.0
2024-08-09 16:00:00+00:00,0.0
2024-08-09 17:00:00+00:00,0.0
2024-08-09 18:00:00+00:00,0.0
2024-08-09 19:00:00+00:00,0.0
2024-08-12 13:00:00+00:00,0.0
2024-08-12 14:00:00+00:00,0.0
2024-08-12 15:00:00+00:00,0.0
2024-08-12 16:00:00+00:00,0.0
2024-08-12 17:00:00+00:00,0.0
2024-08-12 18:00:00+00:00,0.0
2024-08-12 19:00:00+00:00,0.0
2024-08-13 13:00:00+00:00,0.0
2024-08-13 14:00:00+00:00,0.0
2024-08-13 15:00:00+00:00,0.0
2024-08-13 16:00:00+00:00,0.0
2024-08-13 17:00:00+00:00,0.0
2024-08-13 18:00:00+00:00,0.0
2024-08-13 19:00:00+00:00,0.0
2024-08-14 13:00:00+00:00,0.0
2024-08-14 14:00:00+00:00,0.0
2024-08-14 15:00:00+00:00,0.0
2024-08-14 16:00:00+00:00,0.0
2024-08-14 17:00:00+00:00,0.0
2024-08-14 18:00:00+00:00,0.0
2024-08-14 19:00:00+00:00,0.0
2024-08-15 13:00:00+00:00,0.0
2024-08-15 14:00:00+00:00,0.0
2024-08-15 15:00:00+00:00,0.0
2024-08-15 16:00:00+00:00,0.0
2024-08-15 17:00:00+00:00,0.0
2024-08-15 18:00:00+00:00,0.0
2024-08-15 19:00:00+00:00,0.0
2024-08-16 13:00:00+00:00,0.0
2024-08-16 14:00:00+00:00,0.0
2024-08-16 15:00:00+00:00,0.0
2024-08-16 16:00:00+00:00,0.0
2024-08-16 17:00:00+00:00,0.0
2024-08-16 18:00:00+00:00,0.0
2024-08-16 19:00:00+00:00,0.0
2024-08-19 13:00:00+00:00,0.0
2024-08-19 14:00:00+00:00,0.0
2024-08-19 15:00:00+00:00,0.0
2024-08-19 16:00:00+00:00,0.0
2024-08-19 17:00:00+00:00,0.0
2024-08-19 18:00:00+00:00,0.0
2024-08-19 19:00:00+00:00,0.0
2024-08-20 13:00:00+00:00,0.0
2024-08-20 14:00:00+00:00,0.0
2024-08-20 15:00:00+00:00,0.0
2024-08-20 16:00:00+00:00,0.0
2024-08-20 17:00:00+00:00,0.0
2024-08-20 18:00:00+00:00,0.0
2024-08-20 19:00:00+00:00,0.0
2024-08-21 13:00:00+00:00,0.0
2024-08-21 14:00:00+00:00,0.0
2024-08-21 15:00:00+00:00,0.0
2024-08-21 16:00:00+00:00,0.0
2024-08-21 17:00:00+00:00,0.0
2024-08-21 18:00:00+00:00,0.0
2024-08-21 19:00:00+00:00,0.0
2024-08-22 13:00:00+00:00,0.0
2024-08-22 14:00:00+00:00,0.0
2024-08-22 15:00:00+00:00,0.0
2024-08-22 16:00:00+00:00,0.0
2024-08-22 17:00:00+00:00,0.0
2024-08-22 18:00:00+00:00,0.0
2024-08-22 19:00:00+00:00,0.0
2024-08-23 13:00:00+00:00,0.0
2024-08-23 14:00:00+00:00,0.0
2024-08-23 15:00:00+00:00,0.0
2024-08-23 16:00:00+00:00,0.0
2024-08-23 17:00:00+00:00,0.0
2024-08-23 18:00:00+00:00,0.0
2024-08-23 19:00:00+00:00,0.0
2024-08-26 13:00:00+00:00,0.0
2024-08-26 14:00:00+00:00,0.0
2024-08-26 15:00:00+00:00,0.0
2024-08-26 16:00:00+00:00,0.0
2024-08-26 17:00:00+00:00,0.0
2024-08-26 18:00:00+00:00,0.0
2024-08-26 19:00:00+00:00,0.0
2024-08-27 13:00:00+00:00,0.0
2024-08-27 14:00:00+00:00,0.0
2024-08-27 15:00:00+00:00,0.0
2024-08-27 16:00:00+00:00,0.0
2024-08-27 17:00:00+00:00,0.0
2024-08-27 18:00:00+00:00,0.0
2024-08-27 19:00:00+00:00,0.0
2024-08-28 13:00:00+00:00,0.0
2024-08-28 14:00:00+00:00,0.0
2024-08-28 15:00:00+00:00,0.0
2024-08-28 16:00:00+00:00,0.0
2024-08-28 17:00:00+00:00,0.0
2024-08-28 18:00:00+00:00,0.0
2024-08-28 19:00:00+00:00,0.0
2024-08-29 13:00:00+00:00,0.0
2024-08-29 14:00:00+00:00,0.0
2024-08-29 15:00:00+00:00,0.0
2024-08-29 16:00:00+00:00,0.0
2024-08-29 17:00:00+00:00,0.0
2024-08-29 18:00:00+00:00,0.0
2024-08-29 19:00:00+00:00,0.0
2024-08-30 13:00:00+00:00,0.0
2024-08-30 14:00:00+00:00,0.0
2024-08-30 15:00:00+00:00,0.0
2024-08-30 16:00:00+00:00,0.0
2024-08-30 17:00:00+00:00,0.0
2024-08-30 18:00:00+00:00,0.0
2024-08-30 19:00:00+00:00,0.0
2024-09-03 13:00:00+00:00,0.0
2024-09-03 14:00:00+00:00,0.0
2024-09-03 15:00:00+00:00,0.0
2024-09-03 16:00:00+00:00,0.0
2024-09-03 17:00:00+00:00,0.0
2024-09-03 18:00:00+00:00,0.0
2024-09-03 19:00:00+00:00,0.0
2024-09-04 13:00:00+00:00,0.0
2024-09-04 14:00:00+00:00,0.0
2024-09-04 15:00:00+00:00,0.0
2024-09-04 16:00:00+00:00,0.0
2024-09-04 17:00:00+00:00,0.0
2024-09-04 18:00:00+00:00,0.0
2024-09-04 19:00:00+00:00,0.0
2024-09-05 13:00:00+00:00,0.0
2024-09-05 14:00:00+00:00,0.0
2024-09-05 15:00:00+00:00,0.0
2024-09-05 16:00:00+00:00,0.0
2024-09-05 17:00:00+00:00,0.0
2024-09-05 18:00:00+00:00,0.0
2024-09-05 19:00:00+00:00,0.0
2024-09-06 13:00:00+00:00,0.0
2024-09-06 14:00:00+00:00,0.0
2024-09-06 15:00:00+00:00,0.0
2024-09-06 16:00:00+00:00,0.0
2024-09-06 17:00:00+00:00,0.0
2024-09-06 18:00:00+00:00,0.0
2024-09-06 19:00:00+00:00,0.0
2024-09-09 13:00:00+00:00,0.0
2024-09-09 14:00:00+00:00,0.0
2024-09-09 15:00:00+00:00,0.0
2024-09-09 16:00:00+00:00,0.0
2024-09-09 17:00:00+00:00,0.0
2024-09-09 18:00:00+00:00,0.0
2024-09-09 19:00:00+00:00,0.0
2024-09-10 13:00:00+00:00,0.0
2024-09-10 14:00:00+00:00,0.0
2024-09-10 15:00:00+00:00,0.0
2024-09-10 16:00:00+00:00,0.0
2024-09-10 17:00:00+00:00,0.0
2024-09-10 18:00:00+00:00,0.0
2024-09-10 19:00:00+00:00,0.0
2024-09-11 13:00:00+00:00,0.0
2024-09-11 14:00:00+00:00,0.0
2024-09-11 15:00:00+00:00,0.0
2024-09-11 16:00:00+00:00,0.0
2024-09-11 17:00:00+00:00,0.0
2024-09-11 18:00:00+00:00,0.0
2024-09-11 19:00:00+00:00,0.0
2024-09-12 13:00:00+00:00,0.0
2024-09-12 14:00:00+00:00,0.0
2024-09-12 15:00:00+00:00,0.0
2024-09-12 16:00:00+00:00,0.0
2024-09-12 17:00:00+00:00,0.0
2024-09-12 18:00:00+00:00,0.0
2024-09-12 19:00:00+00:00,0.0
2024-09-13 13:00:00+00:00,0.0
2024-09-13 14:00:00+00:00,0.0
2024-09-13 15:00:00+00:00,0.0
2024-09-13 16:00:00+00:00,0.0
2024-09-13 17:00:00+00:00,0.0
2024-09-13 18:00:00+00:00,0.0
2024-09-13 19:00:00+00:00,0.0
2024-09-16 13:00:00+00:00,0.0
2024-09-16 14:00:00+00:00,0.0
2024-09-16 15:00:00+00:00,0.0
2024-09-16 16:00:00+00:00,0.0
2024-09-16 17:00:00+00:00,0.0
2024-09-16 18:00:00+00:00,0.0
2024-09-16 19:00:00+00:00,0.0
2024-09-17 13:00:00+00:00,0.0
2024-09-17 14:00:00+00:00,0.0
2024-09-17 15:00:00+00:00,0.0
2024-09-17 16:00:00+00:00,0.0
2024-09-17 17:00:00+00:00,0.0
2024-09-17 18:00:00+00:00,0.0
2024-09-17 19:00:00+00:00,0.0
2024-09-18 13:00:00+00:00,0.0
2024-09-18 14:00:00+00:00,0.0
2024-09-18 15:00:00+00:00,0.0
2024-09-18 16:00:00+00:00,0.0
2024-09-18 17:00:00+00:00,0.0
2024-09-18 18:00:00+00:00,0.0
2024-09-18 19:00:00+00:00,0.0
2024-09-19 13:00:00+00:00,0.0
2024-09-19 14:00:00+00:00,0.0
2024-09-19 15:00:00+00:00,0.0
2024-09-19 16:00:00+00:00,0.0
2024-09-19 17:00:00+00:00,0.0
2024-09-19 18:00:00+00:00,0.0
2024-09-19 19:00:00+00:00,0.0
2024-09-20 13:00:00+00:00,0.0
2024-09-20 14:00:00+00:00,0.0
2024-09-20 15:00:00+00:00,0.0
2024-09-20 16:00:00+00:00,0.0
2024-09-20 17:00:00+00:00,0.0
2024-09-20 18:00:00+00:00,0.0
2024-09-20 19:00:00+00:00,0.0
2024-09-23 13:00:00+00:00,0.0
2024-09-23 14:00:00+00:00,0.0
2024-09-23 15:00:00+00:00,0.0
2024-09-23 16:00:00+00:00,0.0
2024-09-23 17:00:00+00:00,0.0
2024-09-23 18:00:00+00:00,0.0
2024-09-23 19:00:00+00:00,0.0
2024-09-24 13:00:00+00:00,0.0
2024-09-24 14:00:00+00:00,0.0
2024-09-24 15:00:00+00:00,0.0
2024-09-24 16:00:00+00:00,0.0
2024-09-24 17:00:00+00:00,0.0
2024-09-24 18:00:00+00:00,0.0
2024-09-24 19:00:00+00:00,0.0
2024-09-25 13:00:00+00:00,0.0
2024-09-25 14:00:00+00:00,0.0
2024-09-25 15:00:00+00:00,0.0
2024-09-25 16:00:00+00:00,0.0
2024-09-25 17:00:00+00:00,0.0
2024-09-25 18:00:00+00:00,0.0
2024-09-25 19:00:00+00:00,0.0
2024-09-26 13:00:00+00:00,0.0
2024-09-26 14:00:00+00:00,0.0
2024-09-26 15:00:00+00:00,0.0
2024-09-26 16:00:00+00:00,0.0
2024-09-26 17:00:00+00:00,0.0
2024-09-26 18:00:00+00:00,0.0
2024-09-26 19:00:00+00:00,0.0
2024-09-27 13:00:00+00:00,0.0
2024-09-27 14:00:00+00:00,0.0
2024-09-27 15:00:00+00:00,0.0
2024-09-27 16:00:00+00:00,0.0
2024-09-27 17:00:00+00:00,0.0
2024-09-27 18:00:00+00:00,0.0
2024-09-27 19:00:00+00:00,0.0
2024-09-30 13:00:00+00:00,0.0
2024-09-30 14:00:00+00:00,0.0
2024-09-30 15:00:00+00:00,0.0
2024-09-30 16:00:00+00:00,0.0
2024-09-30 17:00:00+00:00,0.0
2024-09-30 18:00:00+00:00,0.0
2024-09-30 19:00:00+00:00,0.0
2024-10-01 13:00:00+00:00,0.0
2024-10-01 14:00:00+00:00,0.0
2024-10-01 15:00:00+00:00,0.0
2024-10-01 16:00:00+00:00,0.0
2024-10-01 17:00:00+00:00,0.0
2024-10-01 18:00:00+00:00,0.0
2024-10-01 19:00:00+00:00,0.0
2024-10-02 13:00:00+00:00,0.0
2024-10-02 14:00:00+00:00,0.0
2024-10-02 15:00:00+00:00,0.0
2024-10-02 16:00:00+00:00,0.0
2024-10-02 17:00:00+00:00,0.0
2024-10-02 18:00:00+00:00,0.0
2024-10-02 19:00:00+00:00,0.0
2024-10-03 13:00:00+00:00,0.0
2024-10-03 14:00:00+00:00,0.0
2024-10-03 15:00:00+00:00,0.0
2024-10-03 16:00:00+00:00,0.0
2024-10-03 17:00:00+00:00,0.0
2024-10-03 18:00:00+00:00,0.0
2024-10-03 19:00:00+00:00,0.0
2024-10-04 13:00:00+00:00,0.0
2024-10-04 14:00:00+00:00,0.0
2024-10-04 15:00:00+00:00,0.0
2024-10-04 16:00:00+00:00,0.0
2024-10-04 17:00:00+00:00,0.0
2024-10-04 18:00:00+00:00,0.0
2024-10-04 19:00:00+00:00,0.0
2024-10-07 13:00:00+00:00,0.0
2024-10-07 14:00:00+00:00,0.0
2024-10-07 15:00:00+00:00,0.0
2024-10-07 16:00:00+00:00,0.0
2024-10-07 17:00:00+00:00,0.0
2024-10-07 18:00:00+00:00,0.0
2024-10-07 19:00:00+00:00,0.0
2024-10-08 13:00:00+00:00,0.0
2024-10-08 14:00:00+00:00,0.0
2024-10-08 15:00:00+00:00,0.0
2024-10-08 16:00:00+00:00,0.0
2024-10-08 17:00:00+00:00,0.0
2024-10-08 18:00:00+00:00,0.0
2024-10-08 19:00:00+00:00,0.0
2024-10-09 13:00:00+00:00,0.0
2024-10-09 14:00:00+00:00,0.0
2024-10-09 15:00:00+00:00,0.0
2024-10-09 16:00:00+00:00,0.0
2024-10-09 17:00:00+00:00,0.0
2024-10-09 18:00:00+00:00,0.0
2024-10-09 19:00:00+00:00,0.0
2024-10-10 13:00:00+00:00,0.0
2024-10-10 14:00:00+00:00,0.0
2024-10-10 15:00:00+00:00,0.0
2024-10-10 16:00:00+00:00,0.0
2024-10-10 17:00:00+00:00,0.0
2024-10-10 18:00:00+00:00,0.0
2024-10-10 19:00:00+00:00,0.0
2024-10-11 13:00:00+00:00,0.0
2024-10-11 14:00:00+00:00,0.0
2024-10-11 15:00:00+00:00,0.0
2024-10-11 16:00:00+00:00,0.0
2024-10-11 17:00:00+00:00,0.0
2024-10-11 18:00:00+00:00,0.0
2024-10-11 19:00:00+00:00,0.0
2024-10-14 13:00:00+00:00,0.0
2024-10-14 14:00:00+00:00,0.0
2024-10-14 15:00:00+00:00,0.0
2024-10-14 16:00:00+00:00,0.0
2024-10-14 17:00:00+00:00,0.0
2024-10-14 18:00:00+00:00,0.0
2024-10-14 19:00:00+00:00,0.0
2024-10-15 13:00:00+00:00,0.0
2024-10-15 14:00:00+00:00,0.0
2024-10-15 15:00:00+00:00,0.0
2024-10-15 16:00:00+00:00,0.0
2024-10-15 17:00:00+00:00,0.0
2024-10-15 18:00:00+00:00,0.0
2024-10-15 19:00:00+00:00,0.0
2024-10-16 13:00:00+00:00,0.0
2024-10-16 14:00:00+00:00,0.0
2024-10-16 15:00:00+00:00,0.0
2024-10-16 16:00:00+00:00,0.0
2024-10-16 17:00:00+00:00,0.0
2024-10-16 18:00:00+00:00,0.0
2024-10-16 19:00:00+00:00,0.0
2024-10-17 13:00:00+00:00,0.0
2024-10-17 14:00:00+00:00,0.0
2024-10-17 15:00:00+00:00,0.0
2024-10-17 16:00:00+00:00,0.0
2024-10-17 17:00:00+00:00,0.0
2024-10-17 18:00:00+00:00,0.0
2024-10-17 19:00:00+00:00,0.0
2024-10-18 13:00:00+00:00,0.0
2024-10-18 14:00:00+00:00,0.0
2024-10-18 15:00:00+00:00,0.0
2024-10-18 16:00:00+00:00,0.0
2024-10-18 17:00:00+00:00,0.0
2024-10-18 18:00:00+00:00,0.0
2024-10-18 19:00:00+00:00,0.0
2024-10-21 13:00:00+00:00,0.0
2024-10-21 14:00:00+00:00,0.0
2024-10-21 15:00:00+00:00,0.0
2024-10-21 16:00:00+00:00,0.0
2024-10-21 17:00:00+00:00,0.0
2024-10-21 18:00:00+00:00,0.0
2024-10-21 19:00:00+00:00,0.0
2024-10-22 13:00:00+00:00,0.0
2024-10-22 14:00:00+00:00,0.0
2024-10-22 15:00:00+00:00,0.0
2024-10-22 16:00:00+00:00,0.0
2024-10-22 17:00:00+00:00,0.0
2024-10-22 18:00:00+00:00,0.0
2024-10-22 19:00:00+00:00,0.0
2024-10-23 13:00:00+00:00,0.0
2024-10-23 14:00:00+00:00,0.0
2024-10-23 15:00:00+00:00,0.0
2024-10-23 16:00:00+00:00,0.0
2024-10-23 17:00:00+00:00,0.0
2024-10-23 18:00:00+00:00,0.0
2024-10-23 19:00:00+00:00,0.0
2024-10-24 13:00:00+00:00,0.0
2024-10-24 14:00:00+00:00,0.0
2024-10-24 15:00:00+00:00,0.0
2024-10-24 16:00:00+00:00,0.0
2024-10-24 17:00:00+00:00,0.0
2024-10-24 18:00:00+00:00,0.0
2024-10-24 19:00:00+00:00,0.0
2024-10-25 13:00:00+00:00,0.0
2024-10-25 14:00:00+00:00,0.0
2024-10-25 15:00:00+00:00,0.0
2024-10-25 16:00:00+00:00,0.0
2024-10-25 17:00:00+00:00,0.0
2024-10-25 18:00:00+00:00,0.0
2024-10-25 19:00:00+00:00,0.0
2024-10-28 13:00:00+00:00,0.0
2024-10-28 14:00:00+00:00,0.0
2024-10-28 15:00:00+00:00,0.0
2024-10-28 16:00:00+00:00,0.0
2024-10-28 17:00:00+00:00,0.0
2024-10-28 18:00:00+00:00,0.0
2024-10-28 19:00:00+00:00,0.0
2024-10-29 13:00:00+00:00,0.0
2024-10-29 14:00:00+00:00,0.0
2024-10-29 15:00:00+00:00,0.0
2024-10-29 16:00:00+00:00,0.0
2024-10-29 17:00:00+00:00,0.0
2024-10-29 18:00:00+00:00,0.0
2024-10-29 19:00:00+00:00,0.0
2024-10-30 13:00:00+00:00,0.0
2024-10-30 14:00:00+00:00,0.0
2024-10-30 15:00:00+00:00,0.0
2024-10-30 16:00:00+00:00,0.0
2024-10-30 17:00:00+00:00,0.0
2024-10-30 18:00:00+00:00,0.0
2024-10-30 19:00:00+00:00,0.0
2024-10-31 13:00:00+00:00,0.0
2024-10-31 14:00:00+00:00,0.0
2024-10-31 15:00:00+00:00,0.0
2024-10-31 16:00:00+00:00,0.0
2024-10-31 17:00:00+00:00,0.0
2024-10-31 18:00:00+00:00,0.0
2024-10-31 19:00:00+00:00,0.0
2024-11-01 13:00:00+00:00,0.0
2024-11-01 14:00:00+00:00,0.0
2024-11-01 15:00:00+00:00,0.0
2024-11-01 16:00:00+00:00,0.0
2024-11-01 17:00:00+00:00,0.0
2024-11-01 18:00:00+00:00,0.0
2024-11-01 19:00:00+00:00,0.0
2024-11-04 14:00:00+00:00,0.0
2024-11-04 15:00:00+00:00,0.0
2024-11-04 16:00:00+00:00,0.0
2024-11-04 17:00:00+00:00,0.0
2024-11-04 18:00:00+00:00,0.0
2024-11-04 19:00:00+00:00,0.0
2024-11-04 20:00:00+00:00,0.0
2024-11-05 14:00:00+00:00,0.0
2024-11-05 15:00:00+00:00,0.0
2024-11-05 16:00:00+00:00,0.0
2024-11-05 17:00:00+00:00,0.0
2024-11-05 18:00:00+00:00,0.0
2024-11-05 19:00:00+00:00,0.0
2024-11-05 20:00:00+00:00,0.0
2024-11-06 14:00:00+00:00,0.0
2024-11-06 15:00:00+00:00,0.0
2024-11-06 16:00:00+00:00,0.0
2024-11-06 17:00:00+00:00,0.0
2024-11-06 18:00:00+00:00,0.0
2024-11-06 19:00:00+00:00,0.0
2024-11-06 20:00:00+00:00,0.0
2024-11-07 14:00:00+00:00,0.0
2024-11-07 15:00:00+00:00,0.0
2024-11-07 16:00:00+00:00,0.0
2024-11-07 17:00:00+00:00,0.0
2024-11-07 18:00:00+00:00,0.0
2024-11-07 19:00:00+00:00,0.0
2024-11-07 20:00:00+00:00,0.0
2024-11-08 14:00:00+00:00,0.0
2024-11-08 15:00:00+00:00,0.0
2024-11-08 16:00:00+00:00,0.0
2024-11-08 17:00:00+00:00,0.0
2024-11-08 18:00:00+00:00,0.0
2024-11-08 19:00:00+00:00,0.0
2024-11-08 20:00:00+00:00,0.0
2024-11-11 14:00:00+00:00,0.0
2024-11-11 15:00:00+00:00,0.0
2024-11-11 16:00:00+00:00,0.0
2024-11-11 17:00:00+00:00,0.0
2024-11-11 18:00:00+00:00,0.0
2024-11-11 19:00:00+00:00,0.0
2024-11-11 20:00:00+00:00,0.0
2024-11-12 14:00:00+00:00,0.0
2024-11-12 15:00:00+00:00,0.0
2024-11-12 16:00:00+00:00,0.0
2024-11-12 17:00:00+00:00,0.0
2024-11-12 18:00:00+00:00,0.0
2024-11-12 19:00:00+00:00,0.0
2024-11-12 20:00:00+00:00,0.0
2024-11-13 14:00:00+00:00,0.0
2024-11-13 15:00:00+00:00,0.0
2024-11-13 16:00:00+00:00,0.0
2024-11-13 17:00:00+00:00,0.0
2024-11-13 18:00:00+00:00,0.0
2024-11-13 19:00:00+00:00,0.0
2024-11-13 20:00:00+00:00,0.0
2024-11-14 14:00:00+00:00,0.0
2024-11-14 15:00:00+00:00,0.0
2024-11-14 16:00:00+00:00,0.0
2024-11-14 17:00:00+00:00,0.0
2024-11-14 18:00:00+00:00,0.0
2024-11-14 19:00:00+00:00,0.0
2024-11-14 20:00:00+00:00,0.0
2024-11-15 14:00:00+00:00,0.0
2024-11-15 15:00:00+00:00,0.0
2024-11-15 16:00:00+00:00,0.0
2024-11-15 17:00:00+00:00,0.0
2024-11-15 18:00:00+00:00,0.0
2024-11-15 19:00:00+00:00,0.0
2024-11-15 20:00:00+00:00,0.0
2024-11-18 14:00:00+00:00,0.0
2024-11-18 15:00:00+00:00,0.0
2024-11-18 16:00:00+00:00,0.0
2024-11-18 17:00:00+00:00,0.0
2024-11-18 18:00:00+00:00,0.0
2024-11-18 19:00:00+00:00,0.0
2024-11-18 20:00:00+00:00,0.0
2024-11-19 14:00:00+00:00,0.0
2024-11-19 15:00:00+00:00,0.0
2024-11-19 16:00:00+00:00,0.0
2024-11-19 17:00:00+00:00,0.0
2024-11-19 18:00:00+00:00,0.0
2024-11-19 19:00:00+00:00,0.0
2024-11-19 20:00:00+00:00,0.0
2024-11-20 14:00:00+00:00,0.0
2024-11-20 15:00:00+00:00,0.0
2024-11-20 16:00:00+00:00,0.0
2024-11-20 17:00:00+00:00,0.0
2024-11-20 18:00:00+00:00,0.0
2024-11-20 19:00:00+00:00,0.0
2024-11-20 20:00:00+00:00,0.0
2024-11-21 14:00:00+00:00,0.0
2024-11-21 15:00:00+00:00,0.0
2024-11-21 16:00:00+00:00,0.0
2024-11-21 17:00:00+00:00,0.0
2024-11-21 18:00:00+00:00,0.0
2024-11-21 19:00:00+00:00,0.0
2024-11-21 20:00:00+00:00,0.0
2024-11-22 14:00:00+00:00,0.0
2024-11-22 15:00:00+00:00,0.0
2024-11-22 16:00:00+00:00,0.0
2024-11-22 17:00:00+00:00,0.0
2024-11-22 18:00:00+00:00,0.0
2024-11-22 19:00:00+00:00,0.0
2024-11-22 20:00:00+00:00,0.0
2024-11-25 14:00:00+00:00,0.0
2024-11-25 15:00:00+00:00,0.0
2024-11-25 16:00:00+00:00,0.0
2024-11-25 17:00:00+00:00,0.0
2024-11-25 18:00:00+00:00,0.0
2024-11-25 19:00:00+00:00,0.0
2024-11-25 20:00:00+00:00,0.0
2024-11-26 14:00:00+00:00,0.0
2024-11-26 15:00:00+00:00,0.0
2024-11-26 16:00:00+00:00,0.0
2024-11-26 17:00:00+00:00,0.0
2024-11-26 18:00:00+00:00,0.0
2024-11-26 19:00:00+00:00,0.0
2024-11-26 20:00:00+00:00,0.0
2024-11-27 14:00:00+00:00,0.0
2024-11-27 15:00:00+00:00,0.0
2024-11-27 16:00:00+00:00,0.0
2024-11-27 17:00:00+00:00,0.0
2024-11-27 18:00:00+00:00,0.0
2024-11-27 19:00:00+00:00,0.0
2024-11-27 20:00:00+00:00,0.0
2024-11-29 14:00:00+00:00,0.0
2024-11-29 15:00:00+00:00,0.0
2024-11-29 16:00:00+00:00,0.0
2024-12-02 14:00:00+00:00,0.0
2024-12-02 15:00:00+00:00,0.0
2024-12-02 16:00:00+00:00,0.0
2024-12-02 17:00:00+00:00,0.0
2024-12-02 18:00:00+00:00,0.0
2024-12-02 19:00:00+00:00,0.0
2024-12-02 20:00:00+00:00,0.0
2024-12-03 14:00:00+00:00,0.0
2024-12-03 15:00:00+00:00,0.0
2024-12-03 16:00:00+00:00,0.0
2024-12-03 17:00:00+00:00,0.0
2024-12-03 18:00:00+00:00,0.0
2024-12-03 19:00:00+00:00,0.0
2024-12-03 20:00:00+00:00,0.0
2024-12-04 14:00:00+00:00,0.0
2024-12-04 15:00:00+00:00,0.0
2024-12-04 16:00:00+00:00,0.0
2024-12-04 17:00:00+00:00,0.0
2024-12-04 18:00:00+00:00,0.0
2024-12-04 19:00:00+00:00,0.0
2024-12-04 20:00:00+00:00,0.0
2024-12-05 14:00:00+00:00,0.0
2024-12-05 15:00:00+00:00,0.0
2024-12-05 16:00:00+00:00,0.0
2024-12-05 17:00:00+00:00,0.0
2024-12-05 18:00:00+00:00,0.0
2024-12-05 19:00:00+00:00,0.0
2024-12-05 20:00:00+00:00,0.0
2024-12-06 14:00:00+00:00,0.0
2024-12-06 15:00:00+00:00,0.0
2024-12-06 16:00:00+00:00,0.0
2024-12-06 17:00:00+00:00,0.0
2024-12-06 18:00:00+00:00,0.0
2024-12-06 19:00:00+00:00,0.0
2024-12-06 20:00:00+00:00,0.0
2024-12-09 14:00:00+00:00,0.0
2024-12-09 15:00:00+00:00,0.0
2024-12-09 16:00:00+00:00,0.0
2024-12-09 17:00:00+00:00,0.0
2024-12-09 18:00:00+00:00,0.0
2024-12-09 19:00:00+00:00,0.0
2024-12-09 20:00:00+00:00,0.0
2024-12-10 14:00:00+00:00,0.0
2024-12-10 15:00:00+00:00,0.0
2024-12-10 16:00:00+00:00,0.0
2024-12-10 17:00:00+00:00,0.0
2024-12-10 18:00:00+00:00,0.0
2024-12-10 19:00:00+00:00,0.0
2024-12-10 20:00:00+00:00,0.0
2024-12-11 14:00:00+00:00,0.0
2024-12-11 15:00:00+00:00,0.0
2024-12-11 16:00:00+00:00,0.0
2024-12-11 17:00:00+00:00,0.0
2024-12-11 18:00:00+00:00,0.0
2024-12-11 19:00:00+00:00,0.0
2024-12-11 20:00:00+00:00,0.0
2024-12-12 14:00:00+00:00,0.0
2024-12-12 15:00:00+00:00,0.0
2024-12-12 16:00:00+00:00,0.0
2024-12-12 17:00:00+00:00,0.0
2024-12-12 18:00:00+00:00,0.0
2024-12-12 19:00:00+00:00,0.0
2024-12-12 20:00:00+00:00,0.0
2024-12-13 14:00:00+00:00,0.0
2024-12-13 15:00:00+00:00,0.0
2024-12-13 16:00:00+00:00,0.0
2024-12-13 17:00:00+00:00,0.0
2024-12-13 18:00:00+00:00,0.0
2024-12-13 19:00:00+00:00,0.0
2024-12-13 20:00:00+00:00,0.0
2024-12-16 14:00:00+00:00,0.0
2024-12-16 15:00:00+00:00,0.0
2024-12-16 16:00:00+00:00,0.0
2024-12-16 17:00:00+00:00,0.0
2024-12-16 18:00:00+00:00,0.0
2024-12-16 19:00:00+00:00,0.0
2024-12-16 20:00:00+00:00,0.0
2024-12-17 14:00:00+00:00,0.0
2024-12-17 15:00:00+00:00,0.0
2024-12-17 16:00:00+00:00,0.0
2024-12-17 17:00:00+00:00,0.0
2024-12-17 18:00:00+00:00,0.0
2024-12-17 19:00:00+00:00,0.0
2024-12-17 20:00:00+00:00,0.0
2024-12-18 14:00:00+00:00,0.0
2024-12-18 15:00:00+00:00,0.0
2024-12-18 16:00:00+00:00,0.0
2024-12-18 17:00:00+00:00,0.0
2024-12-18 18:00:00+00:00,0.0
2024-12-18 19:00:00+00:00,0.0
2024-12-18 20:00:00+00:00,0.0
2024-12-19 14:00:00+00:00,0.0
2024-12-19 15:00:00+00:00,0.0
2024-12-19 16:00:00+00:00,0.0
2024-12-19 17:00:00+00:00,0.0
2024-12-19 18:00:00+00:00,0.0
2024-12-19 19:00:00+00:00,0.0
2024-12-19 20:00:00+00:00,0.0
2024-12-20 14:00:00+00:00,0.0
2024-12-20 15:00:00+00:00,0.0
2024-12-20 16:00:00+00:00,0.0
2024-12-20 17:00:00+00:00,0.0
2024-12-20 18:00:00+00:00,0.0
2024-12-20 19:00:00+00:00,0.0
2024-12-20 20:00:00+00:00,0.0
2024-12-23 14:00:00+00:00,0.0
2024-12-23 15:00:00+00:00,0.0
2024-12-23 16:00:00+00:00,0.0
2024-12-23 17:00:00+00:00,0.0
2024-12-23 18:00:00+00:00,0.0
2024-12-23 19:00:00+00:00,0.0
2024-12-23 20:00:00+00:00,0.0
2024-12-24 14:00:00+00:00,0.0
2024-12-24 15:00:00+00:00,0.0
2024-12-24 16:00:00+00:00,0.0
2024-12-26 14:00:00+00:00,0.0
2024-12-26 15:00:00+00:00,0.0
2024-12-26 16:00:00+00:00,0.0
2024-12-26 17:00:00+00:00,0.0
2024-12-26 18:00:00+00:00,0.0
2024-12-26 19:00:00+00:00,0.0
2024-12-26 20:00:00+00:00,0.0
2024-12-27 14:00:00+00:00,0.0
2024-12-27 15:00:00+00:00,0.0
2024-12-27 16:00:00+00:00,0.0
2024-12-27 17:00:00+00:00,0.0
2024-12-27 18:00:00+00:00,0.0
2024-12-27 19:00:00+00:00,0.0
2024-12-27 20:00:00+00:00,0.0
2024-12-30 14:00:00+00:00,0.0
2024-12-30 15:00:00+00:00,0.0
2024-12-30 16:00:00+00:00,0.0
2024-12-30 17:00:00+00:00,0.0
2024-12-30 18:00:00+00:00,0.0
2024-12-30 19:00:00+00:00,0.0
2024-12-30 20:00:00+00:00,0.0
2024-12-31 14:00:00+00:00,0.0
2024-12-31 15:00:00+00:00,0.0
2024-12-31 16:00:00+00:00,0.0
2024-12-31 17:00:00+00:00,0.0
2024-12-31 18:00:00+00:00,0.0
2024-12-31 19:00:00+00:00,0.0
2024-12-31 20:00:00+00:00,0.0
2025-01-02 14:00:00+00:00,0.0
2025-01-02 15:00:00+00:00,0.0
2025-01-02 16:00:00+00:00,0.0
2025-01-02 17:00:00+00:00,0.0
2025-01-02 18:00:00+00:00,0.0
2025-01-02 19:00:00+00:00,0.0
2025-01-02 20:00:00+00:00,0.0
2025-01-03 14:00:00+00:00,0.0
2025-01-03 15:00:00+00:00,0.0
2025-01-03 16:00:00+00:00,0.0
2025-01-03 17:00:00+00:00,0.0
2025-01-03 18:00:00+00:00,0.0
2025-01-03 19:00:00+00:00,0.0
2025-01-03 20:00:00+00:00,0.0
2025-01-06 14:00:00+00:00,0.0
2025-01-06 15:00:00+00:00,0.0
2025-01-06 16:00:00+00:00,0.0
2025-01-06 17:00:00+00:00,0.0
2025-01-06 18:00:00+00:00,0.0
2025-01-06 19:00:00+00:00,0.0
2025-01-06 20:00:00+00:00,0.0
2025-01-07 14:00:00+00:00,0.0
2025-01-07 15:00:00+00:00,0.0
2025-01-07 16:00:00+00:00,0.0
2025-01-07 17:00:00+00:00,0.0
2025-01-07 18:00:00+00:00,0.0
2025-01-07 19:00:00+00:00,0.0
2025-01-07 20:00:00+00:00,0.0
2025-01-08 14:00:00+00:00,0.0
2025-01-08 15:00:00+00:00,0.0
2025-01-08 16:00:00+00:00,0.0
2025-01-08 17:00:00+00:00,0.0
2025-01-08 18:00:00+00:00,0.0
2025-01-08 19:00:00+00:00,0.0
2025-01-08 20:00:00+00:00,0.0
2025-01-10 14:00:00+00:00,0.0
2025-01-10 15:00:00+00:00,0.0
2025-01-10 16:00:00+00:00,0.0
2025-01-10 17:00:00+00:00,0.0
2025-01-10 18:00:00+00:00,0.0
2025-01-10 19:00:00+00:00,0.0
2025-01-10 20:00:00+00:00,0.0
2025-01-13 14:00:00+00:00,0.0
2025-01-13 15:00:00+00:00,0.0
2025-01-13 16:00:00+00:00,0.0
2025-01-13 17:00:00+00:00,0.0
2025-01-13 18:00:00+00:00,0.0
2025-01-13 19:00:00+00:00,0.0
2025-01-13 20:00:00+00:00,0.0
2025-01-14 14:00:00+00:00,0.0
2025-01-14 15:00:00+00:00,0.0
2025-01-14 16:00:00+00:00,0.0
2025-01-14 17:00:00+00:00,0.0
2025-01-14 18:00:00+00:00,0.0
2025-01-14 19:00:00+00:00,0.0
2025-01-14 20:00:00+00:00,0.0
2025-01-15 14:00:00+00:00,0.0
2025-01-15 15:00:00+00:00,0.0
2025-01-15 16:00:00+00:00,0.0
2025-01-15 17:00:00+00:00,0.0
2025-01-15 18:00:00+00:00,0.0
2025-01-15 19:00:00+00:00,0.0
2025-01-15 20:00:00+00:00,0.0
2025-01-16 14:00:00+00:00,0.0
2025-01-16 15:00:00+00:00,0.0
2025-01-16 16:00:00+00:00,0.0
2025-01-16 17:00:00+00:00,0.0
2025-01-16 18:00:00+00:00,0.0
2025-01-16 19:00:00+00:00,0.0
2025-01-16 20:00:00+00:00,0.0
2025-01-17 14:00:00+00:00,0.0
2025-01-17 15:00:00+00:00,0.0
2025-01-17 16:00:00+00:00,0.0
2025-01-17 17:00:00+00:00,0.0
2025-01-17 18:00:00+00:00,0.0
2025-01-17 19:00:00+00:00,0.0
2025-01-17 20:00:00+00:00,0.0
2025-01-21 14:00:00+00:00,0.0
2025-01-21 15:00:00+00:00,0.0
2025-01-21 16:00:00+00:00,0.0
2025-01-21 17:00:00+00:00,0.0
2025-01-21 18:00:00+00:00,0.0
2025-01-21 19:00:00+00:00,0.0
2025-01-21 20:00:00+00:00,0.0
2025-01-22 14:00:00+00:00,0.0
2025-01-22 15:00:00+00:00,0.0
2025-01-22 16:00:00+00:00,0.0
2025-01-22 17:00:00+00:00,0.0
2025-01-22 18:00:00+00:00,0.0
2025-01-22 19:00:00+00:00,0.0
2025-01-22 20:00:00+00:00,0.0
2025-01-23 14:00:00+00:00,0.0
2025-01-23 15:00:00+00:00,0.0
2025-01-23 16:00:00+00:00,0.0
2025-01-23 17:00:00+00:00,0.0
2025-01-23 18:00:00+00:00,0.0
2025-01-23 19:00:00+00:00,0.0
2025-01-23 20:00:00+00:00,0.0
2025-01-24 14:00:00+00:00,0.0
2025-01-24 15:00:00+00:00,0.0
2025-01-24 16:00:00+00:00,0.0
2025-01-24 17:00:00+00:00,0.0
2025-01-24 18:00:00+00:00,0.0
2025-01-24 19:00:00+00:00,0.0
2025-01-24 20:00:00+00:00,0.0
2025-01-27 14:00:00+00:00,0.0
2025-01-27 15:00:00+00:00,0.0
2025-01-27 16:00:00+00:00,0.0
2025-01-27 17:00:00+00:00,0.0
2025-01-27 18:00:00+00:00,0.0
2025-01-27 19:00:00+00:00,0.0
2025-01-27 20:00:00+00:00,0.0
2025-01-28 14:00:00+00:00,0.0
2025-01-28 15:00:00+00:00,0.0
2025-01-28 16:00:00+00:00,0.0
2025-01-28 17:00:00+00:00,0.0
2025-01-28 18:00:00+00:00,0.0
2025-01-28 19:00:00+00:00,0.0
2025-01-28 20:00:00+00:00,0.0
2025-01-29 14:00:00+00:00,0.0
2025-01-29 15:00:00+00:00,0.0
2025-01-29 16:00:00+00:00,0.0
2025-01-29 17:00:00+00:00,0.0
2025-01-29 18:00:00+00:00,0.0
2025-01-29 19:00:00+00:00,0.0
2025-01-29 20:00:00+00:00,0.0
2025-01-30 14:00:00+00:00,0.0
2025-01-30 15:00:00+00:00,0.0
2025-01-30 16:00:00+00:00,0.0
2025-01-30 17:00:00+00:00,0.0
2025-01-30 18:00:00+00:00,0.0
2025-01-30 19:00:00+00:00,0.0
2025-01-30 20:00:00+00:00,0.0
2025-01-31 14:00:00+00:00,0.0
2025-01-31 15:00:00+00:00,0.0
2025-01-31 16:00:00+00:00,0.0
2025-01-31 17:00:00+00:00,0.0
2025-01-31 18:00:00+00:00,0.0
2025-01-31 19:00:00+00:00,0.0
2025-01-31 20:00:00+00:00,0.0
2025-02-03 14:00:00+00:00,0.0
2025-02-03 15:00:00+00:00,0.0
2025-02-03 16:00:00+00:00,0.0
2025-02-03 17:00:00+00:00,0.0
2025-02-03 18:00:00+00:00,0.0
2025-02-03 19:00:00+00:00,0.0
2025-02-03 20:00:00+00:00,0.0
2025-02-04 14:00:00+00:00,0.0
2025-02-04 15:00:00+00:00,0.0
2025-02-04 16:00:00+00:00,0.0
2025-02-04 17:00:00+00:00,0.0
2025-02-04 18:00:00+00:00,0.0
2025-02-04 19:00:00+00:00,0.0
2025-02-04 20:00:00+00:00,0.0
2025-02-05 14:00:00+00:00,0.0
2025-02-05 15:00:00+00:00,0.0
2025-02-05 16:00:00+00:00,0.0
2025-02-05 17:00:00+00:00,0.0
2025-02-05 18:00:00+00:00,0.0
2025-02-05 19:00:00+00:00,0.0
2025-02-05 20:00:00+00:00,0.0
2025-02-06 14:00:00+00:00,0.0
2025-02-06 15:00:00+00:00,0.0
2025-02-06 16:00:00+00:00,0.0
2025-02-06 17:00:00+00:00,0.0
2025-02-06 18:00:00+00:00,0.0
2025-02-06 19:00:00+00:00,0.0
2025-02-06 20:00:00+00:00,0.0
2025-02-07 14:00:00+00:00,0.0
2025-02-07 15:00:00+00:00,0.0
2025-02-07 16:00:00+00:00,0.0
2025-02-07 17:00:00+00:00,0.0
2025-02-07 18:00:00+00:00,0.0
2025-02-07 19:00:00+00:00,0.0
2025-02-07 20:00:00+00:00,0.0
2025-02-10 14:00:00+00:00,0.0
2025-02-10 15:00:00+00:00,0.0
2025-02-10 16:00:00+00:00,0.0
2025-02-10 17:00:00+00:00,0.0
2025-02-10 18:00:00+00:00,0.0
2025-02-10 19:00:00+00:00,0.0
2025-02-10 20:00:00+00:00,0.0
2025-02-11 14:00:00+00:00,0.0
2025-02-11 15:00:00+00:00,0.0
2025-02-11 16:00:00+00:00,0.0
2025-02-11 17:00:00+00:00,0.0
2025-02-11 18:00:00+00:00,0.0
2025-02-11 19:00:00+00:00,0.0
2025-02-11 20:00:00+00:00,0.0
2025-02-12 14:00:00+00:00,0.0
2025-02-12 15:00:00+00:00,0.0
2025-02-12 16:00:00+00:00,0.0
2025-02-12 17:00:00+00:00,0.0
2025-02-12 18:00:00+00:00,0.0
2025-02-12 19:00:00+00:00,0.0
2025-02-12 20:00:00+00:00,0.0
2025-02-13 14:00:00+00:00,0.0
2025-02-13 15:00:00+00:00,0.0
2025-02-13 16:00:00+00:00,0.0
2025-02-13 17:00:00+00:00,0.0
2025-02-13 18:00:00+00:00,0.0
2025-02-13 19:00:00+00:00,0.0
2025-02-13 20:00:00+00:00,0.0
2025-02-14 14:00:00+00:00,0.0
2025-02-14 15:00:00+00:00,0.0
2025-02-14 16:00:00+00:00,0.0
2025-02-14 17:00:00+00:00,0.0
2025-02-14 18:00:00+00:00,0.0
2025-02-14 19:00:00+00:00,0.0
2025-02-14 20:00:00+00:00,0.0
2025-02-18 14:00:00+00:00,0.0
2025-02-18 15:00:00+00:00,0.0
2025-02-18 16:00:00+00:00,0.0
2025-02-18 17:00:00+00:00,0.0
2025-02-18 18:00:00+00:00,0.0
2025-02-18 19:00:00+00:00,0.0
2025-02-18 20:00:00+00:00,0.0
2025-02-19 14:00:00+00:00,0.0
2025-02-19 15:00:00+00:00,0.0
2025-02-19 16:00:00+00:00,0.0
2025-02-19 17:00:00+00:00,0.0
2025-02-19 18:00:00+00:00,0.0
2025-02-19 19:00:00+00:00,0.0
2025-02-19 20:00:00+00:00,0.0
2025-02-20 14:00:00+00:00,0.0
2025-02-20 15:00:00+00:00,0.0
2025-02-20 16:00:00+00:00,0.0
2025-02-20 17:00:00+00:00,0.0
2025-02-20 18:00:00+00:00,0.0
2025-02-20 19:00:00+00:00,0.0
2025-02-20 20:00:00+00:00,0.0
2025-02-21 14:00:00+00:00,0.0
2025-02-21 15:00:00+00:00,0.0
2025-02-21 16:00:00+00:00,0.0
2025-02-21 17:00:00+00:00,0.0
2025-02-21 18:00:00+00:00,0.0
2025-02-21 19:00:00+00:00,0.0
2025-02-21 20:00:00+00:00,0.0
2025-02-24 14:00:00+00:00,0.0
2025-02-24 15:00:00+00:00,0.0
2025-02-24 16:00:00+00:00,0.0
2025-02-24 17:00:00+00:00,0.0
2025-02-24 18:00:00+00:00,0.0
2025-02-24 19:00:00+00:00,0.0
2025-02-24 20:00:00+00:00,0.0
2025-02-25 14:00:00+00:00,0.0
2025-02-25 15:00:00+00:00,0.0
2025-02-25 16:00:00+00:00,0.0
2025-02-25 17:00:00+00:00,0.0
2025-02-25 18:00:00+00:00,0.0
2025-02-25 19:00:00+00:00,0.0
2025-02-25 20:00:00+00:00,0.0
2025-02-26 14:00:00+00:00,0.0
2025-02-26 15:00:00+00:00,0.0
2025-02-26 16:00:00+00:00,0.0
2025-02-26 17:00:00+00:00,0.0
2025-02-26 18:00:00+00:00,0.0
2025-02-26 19:00:00+00:00,0.0
2025-02-26 20:00:00+00:00,0.0
2025-02-27 14:00:00+00:00,0.0
2025-02-27 15:00:00+00:00,0.0
2025-02-27 16:00:00+00:00,0.0
2025-02-27 17:00:00+00:00,0.0
2025-02-27 18:00:00+00:00,0.0
2025-02-27 19:00:00+00:00,0.0
2025-02-27 20:00:00+00:00,0.0
2025-02-28 14:00:00+00:00,0.0
2025-02-28 15:00:00+00:00,0.0
2025-02-28 16:00:00+00:00,0.0
2025-02-28 17:00:00+00:00,0.0
2025-02-28 18:00:00+00:00,0.0
2025-02-28 19:00:00+00:00,0.0
2025-02-28 20:00:00+00:00,0.0
2025-03-03 14:00:00+00:00,0.0
2025-03-03 15:00:00+00:00,0.0
2025-03-03 16:00:00+00:00,0.0
2025-03-03 17:00:00+00:00,0.0
2025-03-03 18:00:00+00:00,0.0
2025-03-03 19:00:00+00:00,0.0
2025-03-03 20:00:00+00:00,0.0
2025-03-04 14:00:00+00:00,0.0
2025-03-04 15:00:00+00:00,0.0
2025-03-04 16:00:00+00:00,0.0
2025-03-04 17:00:00+00:00,0.0
2025-03-04 18:00:00+00:00,0.0
2025-03-04 19:00:00+00:00,0.0
2025-03-04 20:00:00+00:00,0.0
2025-03-05 14:00:00+00:00,0.0
2025-03-05 15:00:00+00:00,0.0
2025-03-05 16:00:00+00:00,0.0
2025-03-05 17:00:00+00:00,0.0
2025-03-05 18:00:00+00:00,0.0
2025-03-05 19:00:00+00:00,0.0
2025-03-05 20:00:00+00:00,0.0
2025-03-06 14:00:00+00:00,0.0
2025-03-06 15:00:00+00:00,0.0
2025-03-06 16:00:00+00:00,0.0
2025-03-06 17:00:00+00:00,0.0
2025-03-06 18:00:00+00:00,0.0
2025-03-06 19:00:00+00:00,0.0
2025-03-06 20:00:00+00:00,0.0
2025-03-07 14:00:00+00:00,0.0
2025-03-07 15:00:00+00:00,0.0
2025-03-07 16:00:00+00:00,0.0
2025-03-07 17:00:00+00:00,0.0
2025-03-07 18:00:00+00:00,0.0
2025-03-07 19:00:00+00:00,0.0
2025-03-07 20:00:00+00:00,0.0
2025-03-10 13:00:00+00:00,0.0
2025-03-10 14:00:00+00:00,0.0
2025-03-10 15:00:00+00:00,0.0
2025-03-10 16:00:00+00:00,0.0
2025-03-10 17:00:00+00:00,0.0
2025-03-10 18:00:00+00:00,0.0
2025-03-10 19:00:00+00:00,0.0
2025-03-11 13:00:00+00:00,0.0
2025-03-11 14:00:00+00:00,0.0
2025-03-11 15:00:00+00:00,0.0
2025-03-11 16:00:00+00:00,0.0
2025-03-11 17:00:00+00:00,0.0
2025-03-11 18:00:00+00:00,0.0
2025-03-11 19:00:00+00:00,0.0
2025-03-12 13:00:00+00:00,0.0
2025-03-12 14:00:00+00:00,0.0
2025-03-12 15:00:00+00:00,0.0
2025-03-12 16:00:00+00:00,0.0
2025-03-12 17:00:00+00:00,0.0
2025-03-12 18:00:00+00:00,0.0
2025-03-12 19:00:00+00:00,0.0
2025-03-13 13:00:00+00:00,0.0
2025-03-13 14:00:00+00:00,0.0
2025-03-13 15:00:00+00:00,0.0
2025-03-13 16:00:00+00:00,0.0
2025-03-13 17:00:00+00:00,0.0
2025-03-13 18:00:00+00:00,0.0
2025-03-13 19:00:00+00:00,0.0
2025-03-14 13:00:00+00:00,0.0
2025-03-14 14:00:00+00:00,0.0
2025-03-14 15:00:00+00:00,0.0
2025-03-14 16:00:00+00:00,0.0
2025-03-14 17:00:00+00:00,0.0
2025-03-14 18:00:00+00:00,0.0
2025-03-14 19:00:00+00:00,0.0
2025-03-17 13:00:00+00:00,0.0
2025-03-17 14:00:00+00:00,0.0
2025-03-17 15:00:00+00:00,0.0
2025-03-17 16:00:00+00:00,0.0
2025-03-17 17:00:00+00:00,0.0
2025-03-17 18:00:00+00:00,0.0
2025-03-17 19:00:00+00:00,0.0
2025-03-18 13:00:00+00:00,0.0
2025-03-18 14:00:00+00:00,0.0
2025-03-18 15:00:00+00:00,0.0
2025-03-18 16:00:00+00:00,0.0
2025-03-18 17:00:00+00:00,0.0
2025-03-18 18:00:00+00:00,0.0
2025-03-18 19:00:00+00:00,0.0
2025-03-19 13:00:00+00:00,0.0
2025-03-19 14:00:00+00:00,0.0
2025-03-19 15:00:00+00:00,0.0
2025-03-19 16:00:00+00:00,0.0
2025-03-19 17:00:00+00:00,0.0
2025-03-19 18:00:00+00:00,0.0
2025-03-19 19:00:00+00:00,0.0
2025-03-20 13:00:00+00:00,0.0
2025-03-20 14:00:00+00:00,0.0
2025-03-20 15:00:00+00:00,0.0
2025-03-20 16:00:00+00:00,0.0
2025-03-20 17:00:00+00:00,0.0
2025-03-20 18:00:00+00:00,0.0
2025-03-20 19:00:00+00:00,0.0
2025-03-21 13:00:00+00:00,0.0
2025-03-21 14:00:00+00:00,0.0
2025-03-21 15:00:00+00:00,0.0
2025-03-21 16:00:00+00:00,0.0
2025-03-21 17:00:00+00:00,0.0
2025-03-21 18:00:00+00:00,0.0
2025-03-21 19:00:00+00:00,0.0
2025-03-24 13:00:00+00:00,0.0
2025-03-24 14:00:00+00:00,0.0
2025-03-24 15:00:00+00:00,0.0
2025-03-24 16:00:00+00:00,0.0
2025-03-24 17:00:00+00:00,0.0
2025-03-24 18:00:00+00:00,0.0
2025-03-24 19:00:00+00:00,0.0
2025-03-25 13:00:00+00:00,0.0
2025-03-25 14:00:00+00:00,0.0
2025-03-25 15:00:00+00:00,0.0
2025-03-25 16:00:00+00:00,0.0
2025-03-25 17:00:00+00:00,0.0
2025-03-25 18:00:00+00:00,0.0
2025-03-25 19:00:00+00:00,0.0
2025-03-26 13:00:00+00:00,0.0
2025-03-26 14:00:00+00:00,0.0
2025-03-26 15:00:00+00:00,0.0
2025-03-26 16:00:00+00:00,0.0
2025-03-26 17:00:00+00:00,0.0
2025-03-26 18:00:00+00:00,0.0
2025-03-26 19:00:00+00:00,0.0
2025-03-27 13:00:00+00:00,0.0
2025-03-27 14:00:00+00:00,0.0
2025-03-27 15:00:00+00:00,0.0
2025-03-27 16:00:00+00:00,0.0
2025-03-27 17:00:00+00:00,0.0
2025-03-27 18:00:00+00:00,0.0
2025-03-27 19:00:00+00:00,0.0
2025-03-28 13:00:00+00:00,0.0
2025-03-28 14:00:00+00:00,0.0
2025-03-28 15:00:00+00:00,0.0
2025-03-28 16:00:00+00:00,0.0
2025-03-28 17:00:00+00:00,0.0
2025-03-28 18:00:00+00:00,0.0
2025-03-28 19:00:00+00:00,0.0
2025-03-31 13:00:00+00:00,0.0
2025-03-31 14:00:00+00:00,0.0
2025-03-31 15:00:00+00:00,0.0
2025-03-31 16:00:00+00:00,0.0
2025-03-31 17:00:00+00:00,0.0
2025-03-31 18:00:00+00:00,0.0
2025-03-31 19:00:00+00:00,0.0
2025-04-01 13:00:00+00:00,0.0
2025-04-01 14:00:00+00:00,0.0
2025-04-01 15:00:00+00:00,0.0
2025-04-01 16:00:00+00:00,0.0
2025-04-01 17:00:00+00:00,0.0
2025-04-01 18:00:00+00:00,0.0
2025-04-01 19:00:00+00:00,0.0
2025-04-02 13:00:00+00:00,0.0
2025-04-02 14:00:00+00:00,0.0
2025-04-02 15:00:00+00:00,0.0
2025-04-02 16:00:00+00:00,0.0
2025-04-02 17:00:00+00:00,0.0
2025-04-02 18:00:00+00:00,0.0
2025-04-02 19:00:00+00:00,0.0
2025-04-03 13:00:00+00:00,0.0
2025-04-03 14:00:00+00:00,0.0
2025-04-03 15:00:00+00:00,0.0
2025-04-03 16:00:00+00:00,0.0
2025-04-03 17:00:00+00:00,0.0
2025-04-03 18:00:00+00:00,0.0
2025-04-03 19:00:00+00:00,0.0
2025-04-04 13:00:00+00:00,0.0
2025-04-04 14:00:00+00:00,0.0
2025-04-04 15:00:00+00:00,0.0
2025-04-04 16:00:00+00:00,0.0
2025-04-04 17:00:00+00:00,0.0
2025-04-04 18:00:00+00:00,0.0
2025-04-04 19:00:00+00:00,0.0
2025-04-07 13:00:00+00:00,0.0
2025-04-07 14:00:00+00:00,0.0
2025-04-07 15:00:00+00:00,0.0
2025-04-07 16:00:00+00:00,0.0
2025-04-07 17:00:00+00:00,0.0
2025-04-07 18:00:00+00:00,0.0
2025-04-07 19:00:00+00:00,0.0
2025-04-08 13:00:00+00:00,0.0
2025-04-08 14:00:00+00:00,0.0
2025-04-08 15:00:00+00:00,0.0
2025-04-08 16:00:00+00:00,0.0
2025-04-08 17:00:00+00:00,0.0
2025-04-08 18:00:00+00:00,0.0
2025-04-08 19:00:00+00:00,0.0
2025-04-09 13:00:00+00:00,0.0
2025-04-09 14:00:00+00:00,0.0
2025-04-09 15:00:00+00:00,0.0
2025-04-09 16:00:00+00:00,0.0
2025-04-09 17:00:00+00:00,0.0
2025-04-09 18:00:00+00:00,0.0
2025-04-09 19:00:00+00:00,0.0
2025-04-10 13:00:00+00:00,0.0
2025-04-10 14:00:00+00:00,0.0
2025-04-10 15:00:00+00:00,0.0
2025-04-10 16:00:00+00:00,0.0
2025-04-10 17:00:00+00:00,0.0
2025-04-10 18:00:00+00:00,0.0
2025-04-10 19:00:00+00:00,0.0
2025-04-11 13:00:00+00:00,0.0
2025-04-11 14:00:00+00:00,0.0
2025-04-11 15:00:00+00:00,0.0
2025-04-11 16:00:00+00:00,0.0
2025-04-11 17:00:00+00:00,0.0
2025-04-11 18:00:00+00:00,0.0
2025-04-11 19:00:00+00:00,0.0
2025-04-14 13:00:00+00:00,0.0
2025-04-14 14:00:00+00:00,0.0
2025-04-14 15:00:00+00:00,0.0
2025-04-14 16:00:00+00:00,0.0
2025-04-14 17:00:00+00:00,0.0
2025-04-14 18:00:00+00:00,0.0
2025-04-14 19:00:00+00:00,0.0
2025-04-15 13:00:00+00:00,0.0
2025-04-15 14:00:00+00:00,0.0
2025-04-15 15:00:00+00:00,0.0
2025-04-15 16:00:00+00:00,0.0
2025-04-15 17:00:00+00:00,0.0
2025-04-15 18:00:00+00:00,0.0
2025-04-15 19:00:00+00:00,0.0
2025-04-16 13:00:00+00:00,0.0
2025-04-16 14:00:00+00:00,0.0
2025-04-16 15:00:00+00:00,0.0
2025-04-16 16:00:00+00:00,0.0
2025-04-16 17:00:00+00:00,0.0
2025-04-16 18:00:00+00:00,0.0
2025-04-16 19:00:00+00:00,0.0
2025-04-17 13:00:00+00:00,0.0
2025-04-17 14:00:00+00:00,0.0
2025-04-17 15:00:00+00:00,0.0
2025-04-17 16:00:00+00:00,0.0
2025-04-17 17:00:00+00:00,0.0
2025-04-17 18:00:00+00:00,0.0
2025-04-17 19:00:00+00:00,0.0
2025-04-21 13:00:00+00:00,0.0
2025-04-21 14:00:00+00:00,0.0
2025-04-21 15:00:00+00:00,0.0
2025-04-21 16:00:00+00:00,0.0
2025-04-21 17:00:00+00:00,0.0
2025-04-21 18:00:00+00:00,0.0
2025-04-21 19:00:00+00:00,0.0
2025-04-22 13:00:00+00:00,0.0
2025-04-22 14:00:00+00:00,0.0
2025-04-22 15:00:00+00:00,0.0
2025-04-22 16:00:00+00:00,0.0
2025-04-22 17:00:00+00:00,0.0
2025-04-22 18:00:00+00:00,0.0
2025-04-22 19:00:00+00:00,0.0
2025-04-23 13:00:00+00:00,0.0
2025-04-23 14:00:00+00:00,0.0
2025-04-23 15:00:00+00:00,0.0
2025-04-23 16:00:00+00:00,0.0
2025-04-23 17:00:00+00:00,0.0
2025-04-23 18:00:00+00:00,0.0
2025-04-23 19:00:00+00:00,0.0
2025-04-24 13:00:00+00:00,0.0
2025-04-24 14:00:00+00:00,0.0
2025-04-24 15:00:00+00:00,0.0
2025-04-24 16:00:00+00:00,0.0
2025-04-24 17:00:00+00:00,0.0
2025-04-24 18:00:00+00:00,0.0
2025-04-24 19:00:00+00:00,0.0
2025-04-25 13:00:00+00:00,0.0
2025-04-25 14:00:00+00:00,0.0
2025-04-25 15:00:00+00:00,0.0
2025-04-25 16:00:00+00:00,0.0
2025-04-25 17:00:00+00:00,0.0
2025-04-25 18:00:00+00:00,0.0
2025-04-25 19:00:00+00:00,0.0
2025-04-28 13:00:00+00:00,0.0
2025-04-28 14:00:00+00:00,0.0
2025-04-28 15:00:00+00:00,0.0
2025-04-28 16:00:00+00:00,0.0
2025-04-28 17:00:00+00:00,0.0
2025-04-28 18:00:00+00:00,0.0
2025-04-28 19:00:00+00:00,0.0
2025-04-29 13:00:00+00:00,0.0
2025-04-29 14:00:00+00:00,0.0
2025-04-29 15:00:00+00:00,0.0
2025-04-29 16:00:00+00:00,0.0
2025-04-29 17:00:00+00:00,0.0
2025-04-29 18:00:00+00:00,0.0
2025-04-29 19:00:00+00:00,0.0
2025-04-30 13:00:00+00:00,0.0
2025-04-30 14:00:00+00:00,8.367143472749305
2025-04-30 15:00:00+00:00,-7.382131696552143
2025-04-30 16:00:00+00:00,12.999311579524111
2025-04-30 17:00:00+00:00,6.333118938207854
2025-04-30 18:00:00+00:00,5.306325130820043
2025-04-30 19:00:00+00:00,7.160486509359939
2025-05-01 13:00:00+00:00,-11.44171451277128
2025-05-01 14:00:00+00:00,-13.167679698564116
2025-05-01 15:00:00+00:00,-43.76415068239784
2025-05-01 16:00:00+00:00,-30.14171434612566
2025-05-01 17:00:00+00:00,-4.692227270754458
2025-05-01 18:00:00+00:00,-18.392409979916803
2025-05-01 19:00:00+00:00,-24.76030215614147
2025-05-02 13:00:00+00:00,62.01180598946829
2025-05-02 14:00:00+00:00,51.45056053675256
2025-05-02 15:00:00+00:00,145.32256776965357
2025-05-02 16:00:00+00:00,138.72314547417375
2025-05-02 17:00:00+00:00,113.61640785349023
2025-05-02 18:00:00+00:00,130.47768220210153
2025-05-02 19:00:00+00:00,105.40715234508426
2025-05-05 13:00:00+00:00,75.23573584875943
2025-05-05 14:00:00+00:00,58.363591961627755
2025-05-05 15:00:00+00:00,61.60185215061832
2025-05-05 16:00:00+00:00,29.468364796452896
2025-05-05 17:00:00+00:00,58.11250522573249
2025-05-05 18:00:00+00:00,28.247711375673013
2025-05-05 19:00:00+00:00,38.57886614554075
2025-05-06 13:00:00+00:00,48.015054395091326
2025-05-06 14:00:00+00:00,57.198705097989404
2025-05-06 15:00:00+00:00,37.9337711078913
2025-05-06 16:00:00+00:00,32.75540114444442
2025-05-06 17:00:00+00:00,43.93589594320038
2025-05-06 18:00:00+00:00,52.0077753796353
2025-05-06 19:00:00+00:00,38.07114444593848
2025-05-07 13:00:00+00:00,37.57298891717804
2025-05-07 14:00:00+00:00,62.69237440721845
2025-05-07 15:00:00+00:00,52.1208118742799
2025-05-07 16:00:00+00:00,60.891088781566545
2025-05-07 17:00:00+00:00,61.05598280516024
2025-05-07 18:00:00+00:00,60.48500488558061
2025-05-07 19:00:00+00:00,68.72371878488794
2025-05-08 13:00:00+00:00,72.56821373506084
2025-05-08 14:00:00+00:00,70.6157916946666
2025-05-08 15:00:00+00:00,75.28225584880136
2025-05-08 16:00:00+00:00,74.0432533692649
2025-05-08 17:00:00+00:00,82.27122038611823
2025-05-08 18:00:00+00:00,93.27711915023224
2025-05-08 19:00:00+00:00,81.23278959624946
2025-05-09 13:00:00+00:00,115.03285312517143
2025-05-09 14:00:00+00:00,129.12690035106485
2025-05-09 15:00:00+00:00,124.58541001929396
2025-05-09 16:00:00+00:00,134.35380171846728
2025-05-09 17:00:00+00:00,129.67710913469807
2025-05-09 18:00:00+00:00,119.47898553077938
2025-05-09 19:00:00+00:00,100.55036049069598
2025-05-12 13:00:00+00:00,137.58436161262944
2025-05-12 14:00:00+00:00,121.82687432836622
2025-05-12 15:00:00+00:00,116.63053827705743
2025-05-12 16:00:00+00:00,138.72992797424473
2025-05-12 17:00:00+00:00,148.09223577743123
2025-05-12 18:00:00+00:00,141.6944157149937
2025-05-12 19:00:00+00:00,162.23601131614043
2025-05-13 13:00:00+00:00,139.65652614834642
2025-05-13 14:00:00+00:00,101.6172445600522
2025-05-13 15:00:00+00:00,124.23681602414122
2025-05-13 16:00:00+00:00,116.26112345452675
2025-05-13 17:00:00+00:00,102.25703239526649
2025-05-13 18:00:00+00:00,110.94141236206409
2025-05-13 19:00:00+00:00,111.07250582265831
2025-05-14 13:00:00+00:00,119.07050481273004
2025-05-14 14:00:00+00:00,93.7756891871593
2025-05-14 15:00:00+00:00,93.72619330995498
2025-05-14 16:00:00+00:00,87.0883894308375
2025-05-14 17:00:00+00:00,87.60432324540108
2025-05-14 18:00:00+00:00,94.83555190790447
2025-05-14 19:00:00+00:00,114.36194663739404
2025-05-15 13:00:00+00:00,111.05873783520451
2025-05-15 14:00:00+00:00,120.08570662947153
2025-05-15 15:00:00+00:00,112.80715535264785
2025-05-15 16:00:00+00:00,131.37508905039067
2025-05-15 17:00:00+00:00,123.54222019853013
2025-05-15 18:00:00+00:00,135.14270575499026
2025-05-15 19:00:00+00:00,135.325325127738
2025-05-16 13:00:00+00:00,96.39758810044019
2025-05-16 14:00:00+00:00,92.30176657008391
2025-05-16 15:00:00+00:00,101.71888236366854
2025-05-16 16:00:00+00:00,110.25503138533821
2025-05-16 17:00:00+00:00,124.83796067847418
2025-05-16 18:00:00+00:00,133.64909193376744
2025-05-16 19:00:00+00:00,137.17200057311226
2025-05-19 13:00:00+00:00,5.582052126613007
2025-05-19 14:00:00+00:00,8.878740025973023
2025-05-19 15:00:00+00:00,2.0506925237646074
2025-05-19 16:00:00+00:00,7.710472341566645
2025-05-19 17:00:00+00:00,5.738497920626144
2025-05-19 18:00:00+00:00,8.740160632214032
2025-05-19 19:00:00+00:00,11.807256117673688
2025-05-20 13:00:00+00:00,-5.458662690517251
2025-05-20 14:00:00+00:00,5.423432512626693
2025-05-20 15:00:00+00:00,10.04000443571617
2025-05-20 16:00:00+00:00,15.675158051231701
2025-05-20 17:00:00+00:00,-9.388858547638169
2025-05-20 18:00:00+00:00,-7.772930167112435
2025-05-20 19:00:00+00:00,-2.3828828608600023
2025-05-21 13:00:00+00:00,-18.642048081889563
2025-05-21 14:00:00+00:00,-13.113605534643696
2025-05-21 15:00:00+00:00,-16.380837777025818
2025-05-21 16:00:00+00:00,-28.75085205463611
2025-05-21 17:00:00+00:00,-43.61093740136795
2025-05-21 18:00:00+00:00,-53.276769081586885
2025-05-21 19:00:00+00:00,-47.7675928470146
2025-05-22 13:00:00+00:00,-57.51691426705537
2025-05-22 14:00:00+00:00,-56.64729790332414
2025-05-22 15:00:00+00:00,-45.25868487945543
2025-05-22 16:00:00+00:00,-47.52737564963882
2025-05-22 17:00:00+00:00,-42.0455295349158
2025-05-22 18:00:00+00:00,-31.308148029122954
2025-05-22 19:00:00+00:00,-39.855297497813
2025-05-23 13:00:00+00:00,-17.543585339007958
2025-05-23 14:00:00+00:00,-7.388406106159474
2025-05-23 15:00:00+00:00,-5.125263563786477
2025-05-23 16:00:00+00:00,12.50254990853387
2025-05-23 17:00:00+00:00,21.699897551732633
2025-05-23 18:00:00+00:00,31.682013638455885
2025-05-23 19:00:00+00:00,37.602538156452496
2025-05-27 13:00:00+00:00,57.11184312716378
2025-05-27 14:00:00+00:00,52.682569833561764
2025-05-27 15:00:00+00:00,55.67434214523979
2025-05-27 16:00:00+00:00,37.83624482960252
2025-05-27 17:00:00+00:00,66.2529611971076
2025-05-27 18:00:00+00:00,65.21457813299604
2025-05-27 19:00:00+00:00,66.75223193320718
2025-05-28 13:00:00+00:00,54.35662920755918
2025-05-28 14:00:00+00:00,34.04365786805802
2025-05-28 15:00:00+00:00,24.53500084690851
2025-05-28 16:00:00+00:00,36.487073699980996
2025-05-28 17:00:00+00:00,41.94195675986867
2025-05-28 18:00:00+00:00,20.586257450233923
2025-05-28 19:00:00+00:00,5.488362106793073
2025-05-29 13:00:00+00:00,42.02548931468995
2025-05-29 14:00:00+00:00,61.291862741194784
2025-05-29 15:00:00+00:00,55.057004464842166
2025-05-29 16:00:00+00:00,71.0684665553303
2025-05-29 17:00:00+00:00,83.13415662021923
2025-05-29 18:00:00+00:00,93.39855832553368
2025-05-29 19:00:00+00:00,112.51887189295988
2025-05-30 13:00:00+00:00,82.19197954371583
2025-05-30 14:00:00+00:00,70.02259755805353
2025-05-30 15:00:00+00:00,49.35738310579101
2025-05-30 16:00:00+00:00,51.996186122912015
2025-05-30 17:00:00+00:00,91.74453370391626
2025-05-30 18:00:00+00:00,92.58445829605213
2025-05-30 19:00:00+00:00,92.30175128072287
2025-06-02 13:00:00+00:00,75.49793314855125
2025-06-02 14:00:00+00:00,36.5523324549223
2025-06-02 15:00:00+00:00,40.70464026062392
2025-06-02 16:00:00+00:00,31.505294243521877
2025-06-02 17:00:00+00:00,43.459570339853855
2025-06-02 18:00:00+00:00,61.18395147305455
2025-06-02 19:00:00+00:00,63.62164411315227
2025-06-03 13:00:00+00:00,123.90628103795021
2025-06-03 14:00:00+00:00,118.15162321856597
2025-06-03 15:00:00+00:00,106.8110638509077
2025-06-03 16:00:00+00:00,99.73869475249491
2025-06-03 17:00:00+00:00,108.09038015159149
2025-06-03 18:00:00+00:00,112.32695216175694
2025-06-03 19:00:00+00:00,99.74110307909676
2025-06-04 13:00:00+00:00,90.9828475766915
2025-06-04 14:00:00+00:00,59.84041302763703
2025-06-04 15:00:00+00:00,57.31701089082795
2025-06-04 16:00:00+00:00,56.918563125958904
2025-06-04 17:00:00+00:00,62.57143294377645
2025-06-04 18:00:00+00:00,59.88290066875709
2025-06-04 19:00:00+00:00,58.92998513089817
2025-06-05 13:00:00+00:00,55.43242977005571
2025-06-05 14:00:00+00:00,46.241294922831955
2025-06-05 15:00:00+00:00,48.79655991728613
2025-06-05 16:00:00+00:00,48.8325343002579
2025-06-05 17:00:00+00:00,36.42534231788659
2025-06-05 18:00:00+00:00,35.89033604735616
2025-06-05 19:00:00+00:00,29.45316719410789
2025-06-06 13:00:00+00:00,78.89676203123298
2025-06-06 14:00:00+00:00,78.357649703221
2025-06-06 15:00:00+00:00,94.5057562160372
2025-06-06 16:00:00+00:00,77.87841918734784
2025-06-06 17:00:00+00:00,87.79093577416799
2025-06-06 18:00:00+00:00,102.27512999938035
2025-06-06 19:00:00+00:00,91.66271038451264
2025-06-09 13:00:00+00:00,138.1501937182323
2025-06-09 14:00:00+00:00,128.46250438751235
2025-06-09 15:00:00+00:00,142.4095212561441
2025-06-09 16:00:00+00:00,146.2863063047837
2025-06-09 17:00:00+00:00,128.17690010433634
2025-06-09 18:00:00+00:00,126.68680720989859
2025-06-09 19:00:00+00:00,108.90230909502418
2025-06-10 13:00:00+00:00,134.5510743348496
2025-06-10 14:00:00+00:00,145.1666349768614
2025-06-10 15:00:00+00:00,148.49447058908981
2025-06-10 16:00:00+00:00,163.84137301755172
2025-06-10 17:00:00+00:00,141.81296253320795
2025-06-10 18:00:00+00:00,136.50349637524428
2025-06-10 19:00:00+00:00,121.95363599546567
2025-06-11 13:00:00+00:00,124.85679975374565
2025-06-11 14:00:00+00:00,118.89886141637143
2025-06-11 15:00:00+00:00,137.0797836740947
2025-06-11 16:00:00+00:00,139.96073886002242
2025-06-11 17:00:00+00:00,137.23116111421274
2025-06-11 18:00:00+00:00,114.1912759160528
2025-06-11 19:00:00+00:00,128.42800585926466
2025-06-12 13:00:00+00:00,121.7115907641111
2025-06-12 14:00:00+00:00,121.23733204328339
2025-06-12 15:00:00+00:00,124.35946889983654
2025-06-12 16:00:00+00:00,124.83749609392
2025-06-12 17:00:00+00:00,110.16716156917657
2025-06-12 18:00:00+00:00,115.83394466164184
2025-06-12 19:00:00+00:00,115.82405426173243
2025-06-13 13:00:00+00:00,45.807009842247126
2025-06-13 14:00:00+00:00,16.495324777591023
2025-06-13 15:00:00+00:00,2.397900409936046
2025-06-13 16:00:00+00:00,7.541269222516753
2025-06-13 17:00:00+00:00,18.827274501674786
2025-06-13 18:00:00+00:00,22.20136154668463
2025-06-13 19:00:00+00:00,12.890579706316261
2025-06-16 13:00:00+00:00,49.285727072901125
2025-06-16 14:00:00+00:00,38.35703872824514
2025-06-16 15:00:00+00:00,38.305135650374055
2025-06-16 16:00:00+00:00,72.15082511363583
2025-06-16 17:00:00+00:00,78.67008981922075
2025-06-16 18:00:00+00:00,81.27171239765774
2025-06-16 19:00:00+00:00,87.11835864612456
2025-06-17 13:00:00+00:00,157.14917869774354
2025-06-17 14:00:00+00:00,191.91084210872026
2025-06-17 15:00:00+00:00,200.99091730264763
2025-06-17 16:00:00+00:00,203.42813914064715
2025-06-17 17:00:00+00:00,195.00430268369394
2025-06-17 18:00:00+00:00,194.004981836095
2025-06-17 19:00:00+00:00,174.69031585417554
2025-06-18 13:00:00+00:00,178.90298043517438
2025-06-18 14:00:00+00:00,191.84130327736605
2025-06-18 15:00:00+00:00,186.16269481355954
2025-06-18 16:00:00+00:00,193.43617500256508
2025-06-18 17:00:00+00:00,194.90429270534548
2025-06-18 18:00:00+00:00,159.12501263228063
2025-06-18 19:00:00+00:00,171.23935051292776
2025-06-20 13:00:00+00:00,160.07575981801236
2025-06-20 14:00:00+00:00,157.42029372242692
2025-06-20 15:00:00+00:00,156.62056871646914
2025-06-20 16:00:00+00:00,149.01186648743547
2025-06-20 17:00:00+00:00,147.98478700016975
2025-06-20 18:00:00+00:00,165.3164187942648
2025-06-20 19:00:00+00:00,183.20425356956943
2025-06-23 13:00:00+00:00,194.99918113619597
2025-06-23 14:00:00+00:00,192.78577058564522
2025-06-23 15:00:00+00:00,191.87197045790302
2025-06-23 16:00:00+00:00,172.15869886848162
2025-06-23 17:00:00+00:00,143.62971773705047
2025-06-23 18:00:00+00:00,160.14890152714176
2025-06-23 19:00:00+00:00,160.79423212231998
2025-06-24 13:00:00+00:00,90.5528939522703
2025-06-24 14:00:00+00:00,83.22774496050789
2025-06-24 15:00:00+00:00,71.18945916936282
2025-06-24 16:00:00+00:00,59.3764236200182
2025-06-24 17:00:00+00:00,56.28952676287214
2025-06-24 18:00:00+00:00,58.01669800437679
2025-06-24 19:00:00+00:00,46.44992341524431
2025-06-25 13:00:00+00:00,65.76820265354235
2025-06-25 14:00:00+00:00,62.31700119767756
2025-06-25 15:00:00+00:00,50.15090123959439
2025-06-25 16:00:00+00:00,64.08014408823098
2025-06-25 17:00:00+00:00,54.86703499443245
2025-06-25 18:00:00+00:00,66.8901210063982
2025-06-25 19:00:00+00:00,62.0316302951965
2025-06-26 13:00:00+00:00,71.38525102026372
2025-06-26 14:00:00+00:00,84.78954230450404
2025-06-26 15:00:00+00:00,94.68419249107093
2025-06-26 16:00:00+00:00,85.39576295741288
2025-06-26 17:00:00+00:00,74.27996654896448
2025-06-26 18:00:00+00:00,70.65855895631219
2025-06-26 19:00:00+00:00,72.30630096655366
2025-06-27 13:00:00+00:00,48.19302608557088
2025-06-27 14:00:00+00:00,38.704934758148326
2025-06-27 15:00:00+00:00,32.7387815718889
2025-06-27 16:00:00+00:00,42.80967892415443
2025-06-27 17:00:00+00:00,29.28347405854257
2025-06-27 18:00:00+00:00,53.04570914855459
2025-06-27 19:00:00+00:00,53.0360575971861
2025-06-30 13:00:00+00:00,83.84651716655499
2025-06-30 14:00:00+00:00,82.1171775729245
2025-06-30 15:00:00+00:00,77.55009879311547
2025-06-30 16:00:00+00:00,67.11657512707752
2025-06-30 17:00:00+00:00,62.86045569778816
2025-06-30 18:00:00+00:00,66.6503733043353
2025-06-30 19:00:00+00:00,57.72457281837267
2025-07-01 13:00:00+00:00,95.93212830594425
2025-07-01 14:00:00+00:00,152.62191055937683
2025-07-01 15:00:00+00:00,146.19005655324582
2025-07-01 16:00:00+00:00,119.06279805430839
2025-07-01 17:00:00+00:00,126.03309880893468
2025-07-01 18:00:00+00:00,140.71569363776544
2025-07-01 19:00:00+00:00,123.9850199486454
2025-07-02 13:00:00+00:00,141.54185241928315
2025-07-02 14:00:00+00:00,142.95589595814272
2025-07-02 15:00:00+00:00,139.64650546393673
2025-07-02 16:00:00+00:00,149.01934477591945
2025-07-02 17:00:00+00:00,166.56362295949597
2025-07-02 18:00:00+00:00,177.08719790634905
2025-07-02 19:00:00+00:00,188.20082322874816
2025-07-03 13:00:00+00:00,174.6005012450656
2025-07-03 14:00:00+00:00,197.08076166575262
2025-07-03 15:00:00+00:00,205.46534807100034
2025-07-07 13:00:00+00:00,215.9980280958833
2025-07-07 14:00:00+00:00,202.2972694535398
2025-07-07 15:00:00+00:00,202.79533413392713
2025-07-07 16:00:00+00:00,209.93457710127137
2025-07-07 17:00:00+00:00,230.82624294028975
2025-07-07 18:00:00+00:00,235.878595998807
2025-07-07 19:00:00+00:00,261.8226148963426
2025-07-08 13:00:00+00:00,315.9243015334168
2025-07-08 14:00:00+00:00,326.11036638529976
2025-07-08 15:00:00+00:00,355.50341565265217
2025-07-08 16:00:00+00:00,352.1145053864268
2025-07-08 17:00:00+00:00,364.05863439636477
2025-07-08 18:00:00+00:00,364.07529747482965
2025-07-08 19:00:00+00:00,403.45280662709973
2025-07-09 13:00:00+00:00,441.868710986556
2025-07-09 14:00:00+00:00,435.11103044915905
2025-07-09 15:00:00+00:00,424.20144993023644
2025-07-09 16:00:00+00:00,455.9668615360075
2025-07-09 17:00:00+00:00,464.0430858784649
2025-07-09 18:00:00+00:00,468.914605282798
2025-07-09 19:00:00+00:00,459.38643351492215
2025-07-10 13:00:00+00:00,542.9412824353468
2025-07-10 14:00:00+00:00,530.2665886846711
2025-07-10 15:00:00+00:00,499.49957849574804
2025-07-10 16:00:00+00:00,500.4884656826548
2025-07-10 17:00:00+00:00,516.8545780865707
2025-07-10 18:00:00+00:00,513.8234569840823
2025-07-10 19:00:00+00:00,521.9882898799369
2025-07-11 13:00:00+00:00,528.0845714964536
2025-07-11 14:00:00+00:00,526.3805815023194
2025-07-11 15:00:00+00:00,511.4654952029029
2025-07-11 16:00:00+00:00,540.3234895795466
2025-07-11 17:00:00+00:00,539.4912870351939
2025-07-11 18:00:00+00:00,534.2663233731463
2025-07-11 19:00:00+00:00,534.3469531922752
2025-07-14 13:00:00+00:00,426.8265886638499
2025-07-14 14:00:00+00:00,435.3745603229378
2025-07-14 15:00:00+00:00,415.7745234385368
2025-07-14 16:00:00+00:00,393.3884197990578
2025-07-14 17:00:00+00:00,407.0044398308682
2025-07-14 18:00:00+00:00,386.7610045887969
2025-07-14 19:00:00+00:00,372.0206590034643
2025-07-15 13:00:00+00:00,385.42759360299016
2025-07-15 14:00:00+00:00,394.0747958650263
2025-07-15 15:00:00+00:00,406.7963526911151
2025-07-15 16:00:00+00:00,402.12876117545125
2025-07-15 17:00:00+00:00,421.9509577341901
2025-07-15 18:00:00+00:00,412.5973370091229
2025-07-15 19:00:00+00:00,417.4973448632621
2025-07-16 13:00:00+00:00,446.9666768668867
2025-07-16 14:00:00+00:00,426.3688301599286
2025-07-16 15:00:00+00:00,424.59651012407596
2025-07-16 16:00:00+00:00,435.04669686857966
2025-07-16 17:00:00+00:00,431.0913869694903
2025-07-16 18:00:00+00:00,410.90174149729864
2025-07-16 19:00:00+00:00,408.9918581113708
2025-07-17 13:00:00+00:00,400.4298777261212
2025-07-17 14:00:00+00:00,436.3470129013172
2025-07-17 15:00:00+00:00,448.322532539664
2025-07-17 16:00:00+00:00,458.17286442537716
2025-07-17 17:00:00+00:00,497.8288858849075
2025-07-17 18:00:00+00:00,508.44758537722817
2025-07-17 19:00:00+00:00,495.37622863516356
2025-07-18 13:00:00+00:00,475.0523991314925
2025-07-18 14:00:00+00:00,466.2835166687789
2025-07-18 15:00:00+00:00,404.60922077428023
2025-07-18 16:00:00+00:00,426.191421930351
2025-07-18 17:00:00+00:00,355.4782530591277
2025-07-18 18:00:00+00:00,364.7358180276721
2025-07-18 19:00:00+00:00,443.7218920453973
2025-07-21 13:00:00+00:00,443.7800750007213
2025-07-21 14:00:00+00:00,467.2332884455702
2025-07-21 15:00:00+00:00,462.32362630613954
2025-07-21 16:00:00+00:00,493.7949863773734
2025-07-21 17:00:00+00:00,471.33359588238403
2025-07-21 18:00:00+00:00,467.39625023165513
2025-07-21 19:00:00+00:00,469.3421562799785
2025-07-22 13:00:00+00:00,463.21110907012536
2025-07-22 14:00:00+00:00,418.66724589144553
2025-07-22 15:00:00+00:00,454.19379729507324
2025-07-22 16:00:00+00:00,454.0909561696685
2025-07-22 17:00:00+00:00,449.241308590379
2025-07-22 18:00:00+00:00,469.0596902900244
2025-07-22 19:00:00+00:00,442.20210737936276
2025-07-23 13:00:00+00:00,507.89997619946035
2025-07-23 14:00:00+00:00,498.0972051863847
2025-07-23 15:00:00+00:00,522.1662104198257
2025-07-23 16:00:00+00:00,508.52049861642035
2025-07-23 17:00:00+00:00,532.5067833603674
2025-07-23 18:00:00+00:00,536.6042831756718
2025-07-23 19:00:00+00:00,560.531417757123
2025-07-24 13:00:00+00:00,594.1081660156741
2025-07-24 14:00:00+00:00,611.9327418370788
2025-07-24 15:00:00+00:00,633.8991918034934
2025-07-24 16:00:00+00:00,657.9403300867602
2025-07-24 17:00:00+00:00,678.9133628623966
2025-07-24 18:00:00+00:00,676.6680867202782
2025-07-24 19:00:00+00:00,682.7947917580332
2025-07-25 13:00:00+00:00,645.6994770322349
2025-07-25 14:00:00+00:00,646.9155494323758
2025-07-25 15:00:00+00:00,655.3606799660589
2025-07-25 16:00:00+00:00,666.5073742018141
2025-07-25 17:00:00+00:00,662.3922441008734
2025-07-25 18:00:00+00:00,642.9353854688151
2025-07-25 19:00:00+00:00,657.885285981745
2025-07-28 13:00:00+00:00,623.1257958336528
2025-07-28 14:00:00+00:00,635.8301840898464
2025-07-28 15:00:00+00:00,631.2418645019446
2025-07-28 16:00:00+00:00,626.7281337042607
2025-07-28 17:00:00+00:00,617.7581467203642
2025-07-28 18:00:00+00:00,613.0010604320835
2025-07-28 19:00:00+00:00,623.6014158270694
2025-07-29 13:00:00+00:00,622.2339708975675
2025-07-29 14:00:00+00:00,630.4371826431376
2025-07-29 15:00:00+00:00,638.3528551341012
2025-07-29 16:00:00+00:00,611.0080835451663
2025-07-29 17:00:00+00:00,613.7412794581128
2025-07-29 18:00:00+00:00,616.2106052541667
2025-07-29 19:00:00+00:00,614.5215789245949
2025-07-30 13:00:00+00:00,546.2338642772255
2025-07-30 14:00:00+00:00,567.0694018351664
2025-07-30 15:00:00+00:00,563.9201167474757
2025-07-30 16:00:00+00:00,542.6496343893351
2025-07-30 17:00:00+00:00,542.1187341762849
2025-07-30 18:00:00+00:00,493.01097605994084
2025-07-30 19:00:00+00:00,509.3811972552603
2025-07-31 13:00:00+00:00,485.82417492074666
2025-07-31 14:00:00+00:00,452.90217325121347
2025-07-31 15:00:00+00:00,451.94685051268914
2025-07-31 16:00:00+00:00,448.90944953274743
2025-07-31 17:00:00+00:00,465.9163148022132
2025-07-31 18:00:00+00:00,467.93126414686617
2025-07-31 19:00:00+00:00,453.1146309145023
2025-08-01 13:00:00+00:00,566.5801308231864
2025-08-01 14:00:00+00:00,531.9633212155761
2025-08-01 15:00:00+00:00,557.7349601563537
2025-08-01 16:00:00+00:00,536.6540129906589
2025-08-01 17:00:00+00:00,525.2482646590903
2025-08-01 18:00:00+00:00,553.6652198751358
2025-08-01 19:00:00+00:00,546.8931842422026
2025-08-04 13:00:00+00:00,524.2815915123817
2025-08-04 14:00:00+00:00,504.2711285598958
2025-08-04 15:00:00+00:00,481.0747948337989
2025-08-04 16:00:00+00:00,491.6280642861712
2025-08-04 17:00:00+00:00,482.9043355285624
2025-08-04 18:00:00+00:00,493.83519495926856
2025-08-04 19:00:00+00:00,515.0641402464846
2025-08-05 13:00:00+00:00,490.7227096540847
2025-08-05 14:00:00+00:00,523.4216294339419
2025-08-05 15:00:00+00:00,551.4334706950958
2025-08-05 16:00:00+00:00,588.9218118501138
2025-08-05 17:00:00+00:00,574.3270571856362
2025-08-05 18:00:00+00:00,579.8207314056231
2025-08-05 19:00:00+00:00,581.8955625624149
2025-08-06 13:00:00+00:00,597.354151982118
2025-08-06 14:00:00+00:00,595.9603896888597
2025-08-06 15:00:00+00:00,594.8413713377731
2025-08-06 16:00:00+00:00,609.3955766235729
2025-08-06 17:00:00+00:00,606.3180952031787
2025-08-06 18:00:00+00:00,611.5056450458478
2025-08-06 19:00:00+00:00,614.2081792461046
2025-08-07 13:00:00+00:00,632.0132076483841
2025-08-07 14:00:00+00:00,640.9947838890045
2025-08-07 15:00:00+00:00,629.2549031613161
2025-08-07 16:00:00+00:00,615.478092429471
2025-08-07 17:00:00+00:00,631.5448374735151
2025-08-07 18:00:00+00:00,649.33634164764
2025-08-07 19:00:00+00:00,651.21294771315
2025-08-08 13:00:00+00:00,728.6579907889015
2025-08-08 14:00:00+00:00,745.1824866921862
2025-08-08 15:00:00+00:00,755.5071254699831
2025-08-08 16:00:00+00:00,756.4675214731612
2025-08-08 17:00:00+00:00,751.1539492577165
2025-08-08 18:00:00+00:00,747.433072213575
2025-08-08 19:00:00+00:00,737.6405369706172
2025-08-11 13:00:00+00:00,701.831801240574
2025-08-11 14:00:00+00:00,691.4625010016853
2025-08-11 15:00:00+00:00,674.5179302128702
2025-08-11 16:00:00+00:00,656.4154666882275
2025-08-11 17:00:00+00:00,630.512731552934
2025-08-11 18:00:00+00:00,635.1831469931719
2025-08-11 19:00:00+00:00,642.9696555271271
2025-08-12 13:00:00+00:00,652.1499367329444
2025-08-12 14:00:00+00:00,679.091052198426
2025-08-12 15:00:00+00:00,676.3317777702637
2025-08-12 16:00:00+00:00,678.9126348917607
2025-08-12 17:00:00+00:00,684.9939464307855
2025-08-12 18:00:00+00:00,678.4831326887029
2025-08-12 19:00:00+00:00,651.5405723189681
2025-08-13 13:00:00+00:00,672.8086302823774
2025-08-13 14:00:00+00:00,666.9494297468498
2025-08-13 15:00:00+00:00,646.9127514573019
2025-08-13 16:00:00+00:00,645.6917577183749
2025-08-13 17:00:00+00:00,666.2958843027855
2025-08-13 18:00:00+00:00,679.6511587399824
2025-08-13 19:00:00+00:00,673.9952497594633
2025-08-14 13:00:00+00:00,642.6084946894749
2025-08-14 14:00:00+00:00,626.9512106831786
2025-08-14 15:00:00+00:00,616.7038273166721
2025-08-14 16:00:00+00:00,617.3098091210409
2025-08-14 17:00:00+00:00,624.1074332020114
2025-08-14 18:00:00+00:00,636.0650891740279
2025-08-14 19:00:00+00:00,630.8381878066255
2025-08-15 13:00:00+00:00,667.5416539423679
2025-08-15 14:00:00+00:00,692.6650595522746
2025-08-15 15:00:00+00:00,759.3842225721239
2025-08-15 16:00:00+00:00,733.3945750063256
2025-08-15 17:00:00+00:00,717.1812745681772
2025-08-15 18:00:00+00:00,737.2721312251746
2025-08-15 19:00:00+00:00,720.4883484024716
2025-08-18 13:00:00+00:00,710.0335757265715
2025-08-18 14:00:00+00:00,729.0322112701558
2025-08-18 15:00:00+00:00,746.5658679612677
2025-08-18 16:00:00+00:00,737.1050612047742
2025-08-18 17:00:00+00:00,706.7306106836807
2025-08-18 18:00:00+00:00,711.4541325235798
2025-08-18 19:00:00+00:00,703.7743350578943
2025-08-19 13:00:00+00:00,610.4923809344614
2025-08-19 14:00:00+00:00,594.7544616411897
2025-08-19 15:00:00+00:00,593.5265611357842
2025-08-19 16:00:00+00:00,585.8175441277382
2025-08-19 17:00:00+00:00,569.8809275139507
2025-08-19 18:00:00+00:00,560.8730339095736
2025-08-19 19:00:00+00:00,554.1009982766403
2025-08-20 13:00:00+00:00,593.6673116155932
2025-08-20 14:00:00+00:00,598.9113504675298
2025-08-20 15:00:00+00:00,577.3637292498582
2025-08-20 16:00:00+00:00,568.453128543075
2025-08-20 17:00:00+00:00,557.8120280732034
2025-08-20 18:00:00+00:00,570.763831046137
2025-08-20 19:00:00+00:00,580.010980496559
2025-08-21 13:00:00+00:00,611.3649000338849
2025-08-21 14:00:00+00:00,620.0408290371802
2025-08-21 15:00:00+00:00,635.1312439153005
2025-08-21 16:00:00+00:00,677.6391020390855
2025-08-21 17:00:00+00:00,670.1411454651674
2025-08-21 18:00:00+00:00,664.538050791503
2025-08-21 19:00:00+00:00,686.254441443477
2025-08-22 13:00:00+00:00,705.7120366359367
2025-08-22 14:00:00+00:00,722.6353666166586
2025-08-22 15:00:00+00:00,740.1702266295603
2025-08-22 16:00:00+00:00,764.3373395598464
2025-08-22 17:00:00+00:00,755.2488134024169
2025-08-22 18:00:00+00:00,737.7564404735467
2025-08-22 19:00:00+00:00,732.5836187379107
2025-08-25 13:00:00+00:00,704.2796544675869
2025-08-25 14:00:00+00:00,713.1694833045011
2025-08-25 15:00:00+00:00,712.2462650060836
2025-08-25 16:00:00+00:00,711.7868358618969
2025-08-25 17:00:00+00:00,713.2708849935
2025-08-25 18:00:00+00:00,718.6247764979372
2025-08-25 19:00:00+00:00,722.4924450508007
2025-08-26 13:00:00+00:00,692.6838958936231
2025-08-26 14:00:00+00:00,684.6267445642204
2025-08-26 15:00:00+00:00,686.3085232520789
2025-08-26 16:00:00+00:00,694.3253613174221
2025-08-26 17:00:00+00:00,687.551490788661
2025-08-26 18:00:00+00:00,698.4736701112647
2025-08-26 19:00:00+00:00,688.6776506809238
2025-08-27 13:00:00+00:00,693.4207432457374
2025-08-27 14:00:00+00:00,692.858213555737
2025-08-27 15:00:00+00:00,719.5786619768916
2025-08-27 16:00:00+00:00,743.218015721272
2025-08-27 17:00:00+00:00,739.1427272122437
2025-08-27 18:00:00+00:00,736.7451113335928
2025-08-27 19:00:00+00:00,726.7113889521644
2025-08-28 13:00:00+00:00,725.6800146812258
2025-08-28 14:00:00+00:00,698.1665955376379
2025-08-28 15:00:00+00:00,696.0831970055408
2025-08-28 16:00:00+00:00,689.2240128274834
2025-08-28 17:00:00+00:00,687.6460452061249
2025-08-28 18:00:00+00:00,678.1632632579735
2025-08-28 19:00:00+00:00,686.1125001973182
2025-08-29 13:00:00+00:00,711.3510678389958
2025-08-29 14:00:00+00:00,735.6664144483334
2025-08-29 15:00:00+00:00,721.0994193179423
2025-08-29 16:00:00+00:00,731.8460734205484
2025-08-29 17:00:00+00:00,739.6927026151824
2025-08-29 18:00:00+00:00,740.673374953204
2025-08-29 19:00:00+00:00,736.4532299068859
2025-09-02 13:00:00+00:00,736.6152239287103
2025-09-02 14:00:00+00:00,735.8767037594954
2025-09-02 15:00:00+00:00,745.8123988597639
2025-09-02 16:00:00+00:00,752.8065491752009
2025-09-02 17:00:00+00:00,733.8195056222637
2025-09-02 18:00:00+00:00,729.8564764093155
2025-09-02 19:00:00+00:00,751.1998548125839
2025-09-03 13:00:00+00:00,686.829822370019
2025-09-03 14:00:00+00:00,723.1018039969306
2025-09-03 15:00:00+00:00,729.2257050921818
2025-09-03 16:00:00+00:00,709.6982443623324
2025-09-03 17:00:00+00:00,731.3195077349167
2025-09-03 18:00:00+00:00,717.6138663936154
2025-09-03 19:00:00+00:00,742.2822327571901
2025-09-04 13:00:00+00:00,723.6336692403174
2025-09-04 14:00:00+00:00,757.5744859829703
2025-09-04 15:00:00+00:00,746.6979417415597
2025-09-04 16:00:00+00:00,760.3284510318623
2025-09-04 17:00:00+00:00,736.7286993869747
2025-09-04 18:00:00+00:00,722.5433830983344
2025-09-04 19:00:00+00:00,697.8238875644423
2025-09-05 13:00:00+00:00,679.2086241647876
2025-09-05 14:00:00+00:00,667.1191764197628
2025-09-05 15:00:00+00:00,666.2133167783012
2025-09-05 16:00:00+00:00,659.716263378992
2025-09-05 17:00:00+00:00,631.7309777730467
2025-09-05 18:00:00+00:00,640.9466919912213
2025-09-05 19:00:00+00:00,615.2262887092949
2025-09-08 13:00:00+00:00,638.1435259425177
2025-09-08 14:00:00+00:00,656.5600871108999
2025-09-08 15:00:00+00:00,654.7819667848422
2025-09-08 16:00:00+00:00,630.3782609505788
2025-09-08 17:00:00+00:00,617.8641217853208
2025-09-08 18:00:00+00:00,639.8513886134386
2025-09-08 19:00:00+00:00,643.0254340157076
2025-09-09 13:00:00+00:00,692.6892030960595
2025-09-09 14:00:00+00:00,726.4682619315049
2025-09-09 15:00:00+00:00,692.3695535455023
2025-09-09 16:00:00+00:00,705.2871136646784
2025-09-09 17:00:00+00:00,719.3516110644954
2025-09-09 18:00:00+00:00,722.370995496895
2025-09-09 19:00:00+00:00,689.8707730375544
2025-09-10 13:00:00+00:00,720.8436288384303
2025-09-10 14:00:00+00:00,744.5666166647435
2025-09-10 15:00:00+00:00,742.8500696496251
2025-09-10 16:00:00+00:00,738.8182359888891
2025-09-10 17:00:00+00:00,748.0918896897565
2025-09-10 18:00:00+00:00,743.045866968372
2025-09-10 19:00:00+00:00,741.7122226018699
2025-09-11 13:00:00+00:00,788.7700220209276
2025-09-11 14:00:00+00:00,749.7944879732407
2025-09-11 15:00:00+00:00,757.1452208396137
2025-09-11 16:00:00+00:00,736.2588184936121
2025-09-11 17:00:00+00:00,752.0315492664739
2025-09-11 18:00:00+00:00,768.1342659595664
2025-09-11 19:00:00+00:00,770.6661163259552
2025-09-12 13:00:00+00:00,756.8205011463223
2025-09-12 14:00:00+00:00,768.1669796125802
2025-09-12 15:00:00+00:00,770.824969320636
2025-09-12 16:00:00+00:00,772.5434513071857
2025-09-12 17:00:00+00:00,782.7000513552388
2025-09-12 18:00:00+00:00,784.9646397469476
2025-09-12 19:00:00+00:00,774.4101669727869
2025-09-15 13:00:00+00:00,827.9548699708367
2025-09-15 14:00:00+00:00,826.8853502308771
2025-09-15 15:00:00+00:00,824.3250086807592
2025-09-15 16:00:00+00:00,821.64203015206
2025-09-15 17:00:00+00:00,811.0144025055803
2025-09-15 18:00:00+00:00,801.7177571779536
2025-09-15 19:00:00+00:00,807.8912951508454
2025-09-16 13:00:00+00:00,818.8591016395407
2025-09-16 14:00:00+00:00,813.3294585044276
2025-09-16 15:00:00+00:00,811.6998211858926
2025-09-16 16:00:00+00:00,817.3864056500438
2025-09-16 17:00:00+00:00,798.1808606709824
2025-09-16 18:00:00+00:00,789.2746048702206
2025-09-16 19:00:00+00:00,808.2780753870056
2025-09-17 13:00:00+00:00,891.7921127744222
2025-09-17 14:00:00+00:00,877.5561117469304
2025-09-17 15:00:00+00:00,850.9985097509582
2025-09-17 16:00:00+00:00,848.889523896758
2025-09-17 17:00:00+00:00,841.8171531396931
2025-09-17 18:00:00+00:00,868.892978056071
2025-09-17 19:00:00+00:00,864.2254680854475
2025-09-18 13:00:00+00:00,856.2858854313943
2025-09-18 14:00:00+00:00,843.9600549177953
2025-09-18 15:00:00+00:00,831.5726670410335
2025-09-18 16:00:00+00:00,833.9070239657835
2025-09-18 17:00:00+00:00,844.9467682847303
2025-09-18 18:00:00+00:00,860.8792788410367
2025-09-18 19:00:00+00:00,852.1874156749956
2025-09-19 13:00:00+00:00,773.5982380293547
2025-09-19 14:00:00+00:00,781.7939693096051
2025-09-19 15:00:00+00:00,791.2057729899964
2025-09-19 16:00:00+00:00,785.2768182041382
2025-09-19 17:00:00+00:00,803.5407714513792
2025-09-19 18:00:00+00:00,790.1589389623822
2025-09-19 19:00:00+00:00,796.9193853385921
2025-09-22 13:00:00+00:00,805.5744449373019
2025-09-22 14:00:00+00:00,819.6026879858151
2025-09-22 15:00:00+00:00,805.0887992550853
2025-09-22 16:00:00+00:00,807.2483690224101
2025-09-22 17:00:00+00:00,824.2139505296346
2025-09-22 18:00:00+00:00,831.7286151231873
2025-09-22 19:00:00+00:00,808.4043240528824
2025-09-23 13:00:00+00:00,865.0303833249496
2025-09-23 14:00:00+00:00,879.0824096711124
2025-09-23 15:00:00+00:00,896.6770468471232
2025-09-23 16:00:00+00:00,890.197236138466
2025-09-23 17:00:00+00:00,875.3171078375851
2025-09-23 18:00:00+00:00,875.9390238046984
2025-09-23 19:00:00+00:00,867.5402508549989
2025-09-24 13:00:00+00:00,913.0391578425871
2025-09-24 14:00:00+00:00,922.3580135314056
2025-09-24 15:00:00+00:00,907.6695737578676
2025-09-24 16:00:00+00:00,919.7817378185429
2025-09-24 17:00:00+00:00,924.3316763798935
2025-09-24 18:00:00+00:00,909.4515480790126
2025-09-24 19:00:00+00:00,916.8182151081309
2025-09-25 13:00:00+00:00,971.1598806511277
2025-09-25 14:00:00+00:00,946.3389861621602
2025-09-25 15:00:00+00:00,974.6248424497659
2025-09-25 16:00:00+00:00,988.1879894626095
2025-09-25 17:00:00+00:00,988.1879894626095
2025-09-25 18:00:00+00:00,988.1879894626095
2025-09-25 19:00:00+00:00,988.1879894626095
2025-09-26 13:00:00+00:00,988.1879894626095
2025-09-26 14:00:00+00:00,988.1879894626095
2025-09-26 15:00:00+00:00,988.1879894626095
2025-09-26 16:00:00+00:00,988.1879894626095
2025-09-26 17:00:00+00:00,988.1879894626095
2025-09-26 18:00:00+00:00,988.1879894626095
2025-09-26 19:00:00+00:00,988.1879894626095
2025-09-29 13:00:00+00:00,988.1879894626095
2025-09-29 14:00:00+00:00,988.1879894626095
2025-09-29 15:00:00+00:00,988.1879894626095
2025-09-29 16:00:00+00:00,988.1879894626095
2025-09-29 17:00:00+00:00,988.1879894626095
2025-09-29 18:00:00+00:00,988.1879894626095
2025-09-29 19:00:00+00:00,988.1879894626095
2025-09-30 13:00:00+00:00,988.1879894626095
2025-09-30 14:00:00+00:00,988.1879894626095
2025-09-30 15:00:00+00:00,988.1879894626095
2025-09-30 16:00:00+00:00,988.1879894626095
2025-09-30 17:00:00+00:00,988.1879894626095
2025-09-30 18:00:00+00:00,988.1879894626095
2025-09-30 19:00:00+00:00,988.1879894626095
2025-10-01 13:00:00+00:00,988.1879894626095
2025-10-01 14:00:00+00:00,988.1879894626095
2025-10-01 15:00:00+00:00,988.1879894626095
2025-10-01 16:00:00+00:00,988.1879894626095
2025-10-01 17:00:00+00:00,988.1879894626095
2025-10-01 18:00:00+00:00,988.1879894626095
2025-10-01 19:00:00+00:00,988.1879894626095
2025-10-02 13:00:00+00:00,988.1879894626095
2025-10-02 14:00:00+00:00,988.1879894626095
2025-10-02 15:00:00+00:00,988.1879894626095
2025-10-02 16:00:00+00:00,988.1879894626095
2025-10-02 17:00:00+00:00,988.1879894626095
2025-10-02 18:00:00+00:00,988.1879894626095
2025-10-02 19:00:00+00:00,988.1879894626095
2025-10-03 13:00:00+00:00,988.1879894626095
2025-10-03 14:00:00+00:00,988.1879894626095
2025-10-03 15:00:00+00:00,988.1879894626095
2025-10-03 16:00:00+00:00,988.1879894626095
2025-10-03 17:00:00+00:00,988.1879894626095
2025-10-03 18:00:00+00:00,988.1879894626095
2025-10-03 19:00:00+00:00,988.1879894626095
2025-10-06 13:00:00+00:00,988.1879894626095
2025-10-06 14:00:00+00:00,988.1879894626095
2025-10-06 15:00:00+00:00,988.1879894626095
2025-10-06 16:00:00+00:00,988.1879894626095
2025-10-06 17:00:00+00:00,988.1879894626095
2025-10-06 18:00:00+00:00,988.1879894626095
2025-10-06 19:00:00+00:00,988.1879894626095
2025-10-07 13:00:00+00:00,988.1879894626095
2025-10-07 14:00:00+00:00,988.1879894626095
2025-10-07 15:00:00+00:00,988.1879894626095
2025-10-07 16:00:00+00:00,988.1879894626095
2025-10-07 17:00:00+00:00,988.1879894626095
2025-10-07 18:00:00+00:00,988.1879894626095
2025-10-07 19:00:00+00:00,988.1879894626095
2025-10-08 13:00:00+00:00,988.1879894626095
2025-10-08 14:00:00+00:00,988.1879894626095
2025-10-08 15:00:00+00:00,988.1879894626095
2025-10-08 16:00:00+00:00,988.1879894626095
2025-10-08 17:00:00+00:00,988.1879894626095
2025-10-08 18:00:00+00:00,988.1879894626095
2025-10-08 19:00:00+00:00,988.1879894626095
2025-10-09 13:00:00+00:00,988.1879894626095
2025-10-09 14:00:00+00:00,988.1879894626095
2025-10-09 15:00:00+00:00,988.1879894626095
2025-10-09 16:00:00+00:00,988.1879894626095
2025-10-09 17:00:00+00:00,988.1879894626095
2025-10-09 18:00:00+00:00,988.1879894626095
2025-10-09 19:00:00+00:00,988.1879894626095
2025-10-10 13:00:00+00:00,988.1879894626095
2025-10-10 14:00:00+00:00,988.1879894626095
2025-10-10 15:00:00+00:00,988.1879894626095
2025-10-10 16:00:00+00:00,988.1879894626095
2025-10-10 17:00:00+00:00,988.1879894626095
2025-10-10 18:00:00+00:00,988.1879894626095
2025-10-10 19:00:00+00:00,988.1879894626095
2025-10-13 13:00:00+00:00,988.1879894626095
2025-10-13 14:00:00+00:00,988.1879894626095
2025-10-13 15:00:00+00:00,988.1879894626095
2025-10-13 16:00:00+00:00,988.1879894626095
2025-10-13 17:00:00+00:00,988.1879894626095
2025-10-13 18:00:00+00:00,988.1879894626095
2025-10-13 19:00:00+00:00,988.1879894626095
2025-10-14 13:00:00+00:00,988.1879894626095
2025-10-14 14:00:00+00:00,988.1879894626095
2025-10-14 15:00:00+00:00,988.1879894626095
2025-10-14 16:00:00+00:00,988.1879894626095
2025-10-14 17:00:00+00:00,988.1879894626095
2025-10-14 18:00:00+00:00,988.1879894626095
2025-10-14 19:00:00+00:00,988.1879894626095
2025-10-15 13:00:00+00:00,988.1879894626095
2025-10-15 14:00:00+00:00,988.1879894626095
2025-10-15 15:00:00+00:00,988.1879894626095
2025-10-15 16:00:00+00:00,988.1879894626095
2025-10-15 17:00:00+00:00,988.1879894626095
2025-10-15 18:00:00+00:00,988.1879894626095
2025-10-15 19:00:00+00:00,988.1879894626095
2025-10-16 13:00:00+00:00,988.1879894626095
2025-10-16 14:00:00+00:00,988.1879894626095
2025-10-16 15:00:00+00:00,988.1879894626095
2025-10-16 16:00:00+00:00,988.1879894626095
2025-10-16 17:00:00+00:00,988.1879894626095
2025-10-16 18:00:00+00:00,988.1879894626095
2025-10-16 19:00:00+00:00,988.1879894626095
2025-10-17 13:00:00+00:00,988.1879894626095
2025-10-17 14:00:00+00:00,988.1879894626095
2025-10-17 15:00:00+00:00,988.1879894626095
2025-10-17 16:00:00+00:00,988.1879894626095
2025-10-17 17:00:00+00:00,988.1879894626095
2025-10-17 18:00:00+00:00,988.1879894626095
2025-10-17 19:00:00+00:00,988.1879894626095
2025-10-20 13:00:00+00:00,988.1879894626095
2025-10-20 14:00:00+00:00,988.1879894626095
2025-10-20 15:00:00+00:00,988.1879894626095
2025-10-20 16:00:00+00:00,988.1879894626095
2025-10-20 17:00:00+00:00,988.1879894626095
2025-10-20 18:00:00+00:00,988.1879894626095
2025-10-20 19:00:00+00:00,988.1879894626095
2025-10-21 13:00:00+00:00,988.1879894626095
2025-10-21 14:00:00+00:00,988.1879894626095
2025-10-21 15:00:00+00:00,988.1879894626095
2025-10-21 16:00:00+00:00,988.1879894626095
2025-10-21 17:00:00+00:00,988.1879894626095
2025-10-21 18:00:00+00:00,988.1879894626095
2025-10-21 19:00:00+00:00,988.1879894626095
2025-10-22 13:00:00+00:00,988.1879894626095
2025-10-22 14:00:00+00:00,988.1879894626095
2025-10-22 15:00:00+00:00,988.1879894626095
2025-10-22 16:00:00+00:00,988.1879894626095
2025-10-22 17:00:00+00:00,988.1879894626095
2025-10-22 18:00:00+00:00,988.1879894626095
2025-10-22 19:00:00+00:00,988.1879894626095
