Date,0
2024-01-02 14:00:00+00:00,0.0
2024-01-02 15:00:00+00:00,0.0
2024-01-02 16:00:00+00:00,0.0
2024-01-02 17:00:00+00:00,0.0
2024-01-02 18:00:00+00:00,0.0
2024-01-02 19:00:00+00:00,0.0
2024-01-02 20:00:00+00:00,0.0
2024-01-03 14:00:00+00:00,0.0
2024-01-03 15:00:00+00:00,0.0
2024-01-03 16:00:00+00:00,0.0
2024-01-03 17:00:00+00:00,0.0
2024-01-03 18:00:00+00:00,0.0
2024-01-03 19:00:00+00:00,0.0
2024-01-03 20:00:00+00:00,0.0
2024-01-04 14:00:00+00:00,0.0
2024-01-04 15:00:00+00:00,0.0
2024-01-04 16:00:00+00:00,0.0
2024-01-04 17:00:00+00:00,0.0
2024-01-04 18:00:00+00:00,0.0
2024-01-04 19:00:00+00:00,0.0
2024-01-04 20:00:00+00:00,0.0
2024-01-05 14:00:00+00:00,0.0
2024-01-05 15:00:00+00:00,0.0
2024-01-05 16:00:00+00:00,0.0
2024-01-05 17:00:00+00:00,0.0
2024-01-05 18:00:00+00:00,0.0
2024-01-05 19:00:00+00:00,0.0
2024-01-05 20:00:00+00:00,0.0
2024-01-08 14:00:00+00:00,0.0
2024-01-08 15:00:00+00:00,0.0
2024-01-08 16:00:00+00:00,0.0
2024-01-08 17:00:00+00:00,0.0
2024-01-08 18:00:00+00:00,0.0
2024-01-08 19:00:00+00:00,0.0
2024-01-08 20:00:00+00:00,0.0
2024-01-09 14:00:00+00:00,0.0
2024-01-09 15:00:00+00:00,0.0
2024-01-09 16:00:00+00:00,0.0
2024-01-09 17:00:00+00:00,0.0
2024-01-09 18:00:00+00:00,0.0
2024-01-09 19:00:00+00:00,0.0
2024-01-09 20:00:00+00:00,0.0
2024-01-10 14:00:00+00:00,0.0
2024-01-10 15:00:00+00:00,0.0
2024-01-10 16:00:00+00:00,0.0
2024-01-10 17:00:00+00:00,0.0
2024-01-10 18:00:00+00:00,0.0
2024-01-10 19:00:00+00:00,0.0
2024-01-10 20:00:00+00:00,0.0
2024-01-11 14:00:00+00:00,0.0
2024-01-11 15:00:00+00:00,0.0
2024-01-11 16:00:00+00:00,0.0
2024-01-11 17:00:00+00:00,0.0
2024-01-11 18:00:00+00:00,0.0
2024-01-11 19:00:00+00:00,0.0
2024-01-11 20:00:00+00:00,0.0
2024-01-12 14:00:00+00:00,0.0
2024-01-12 15:00:00+00:00,0.0
2024-01-12 16:00:00+00:00,0.0
2024-01-12 17:00:00+00:00,0.0
2024-01-12 18:00:00+00:00,0.0
2024-01-12 19:00:00+00:00,0.0
2024-01-12 20:00:00+00:00,0.0
2024-01-16 14:00:00+00:00,0.0
2024-01-16 15:00:00+00:00,0.0
2024-01-16 16:00:00+00:00,0.0
2024-01-16 17:00:00+00:00,0.0
2024-01-16 18:00:00+00:00,0.0
2024-01-16 19:00:00+00:00,0.0
2024-01-16 20:00:00+00:00,0.0
2024-01-17 14:00:00+00:00,0.0
2024-01-17 15:00:00+00:00,0.0
2024-01-17 16:00:00+00:00,0.0
2024-01-17 17:00:00+00:00,0.0
2024-01-17 18:00:00+00:00,0.0
2024-01-17 19:00:00+00:00,0.0
2024-01-17 20:00:00+00:00,0.0
2024-01-18 14:00:00+00:00,0.0
2024-01-18 15:00:00+00:00,0.0
2024-01-18 16:00:00+00:00,0.0
2024-01-18 17:00:00+00:00,0.0
2024-01-18 18:00:00+00:00,0.0
2024-01-18 19:00:00+00:00,0.0
2024-01-18 20:00:00+00:00,0.0
2024-01-19 14:00:00+00:00,0.0
2024-01-19 15:00:00+00:00,0.0
2024-01-19 16:00:00+00:00,0.0
2024-01-19 17:00:00+00:00,0.0
2024-01-19 18:00:00+00:00,0.0
2024-01-19 19:00:00+00:00,0.0
2024-01-19 20:00:00+00:00,0.0
2024-01-22 14:00:00+00:00,0.0
2024-01-22 15:00:00+00:00,0.0
2024-01-22 16:00:00+00:00,0.0
2024-01-22 17:00:00+00:00,0.0
2024-01-22 18:00:00+00:00,0.0
2024-01-22 19:00:00+00:00,0.0
2024-01-22 20:00:00+00:00,0.0
2024-01-23 14:00:00+00:00,0.0
2024-01-23 15:00:00+00:00,0.0
2024-01-23 16:00:00+00:00,0.0
2024-01-23 17:00:00+00:00,0.0
2024-01-23 18:00:00+00:00,0.0
2024-01-23 19:00:00+00:00,0.0
2024-01-23 20:00:00+00:00,0.0
2024-01-24 14:00:00+00:00,0.0
2024-01-24 15:00:00+00:00,0.0
2024-01-24 16:00:00+00:00,0.0
2024-01-24 17:00:00+00:00,0.0
2024-01-24 18:00:00+00:00,0.0
2024-01-24 19:00:00+00:00,0.0
2024-01-24 20:00:00+00:00,0.0
2024-01-25 14:00:00+00:00,0.0
2024-01-25 15:00:00+00:00,0.0
2024-01-25 16:00:00+00:00,0.0
2024-01-25 17:00:00+00:00,0.0
2024-01-25 18:00:00+00:00,0.0
2024-01-25 19:00:00+00:00,0.0
2024-01-25 20:00:00+00:00,0.0
2024-01-26 14:00:00+00:00,0.0
2024-01-26 15:00:00+00:00,0.0
2024-01-26 16:00:00+00:00,0.0
2024-01-26 17:00:00+00:00,0.0
2024-01-26 18:00:00+00:00,0.0
2024-01-26 19:00:00+00:00,0.0
2024-01-26 20:00:00+00:00,0.0
2024-01-29 14:00:00+00:00,0.0
2024-01-29 15:00:00+00:00,0.0
2024-01-29 16:00:00+00:00,0.0
2024-01-29 17:00:00+00:00,0.0
2024-01-29 18:00:00+00:00,0.0
2024-01-29 19:00:00+00:00,0.0
2024-01-29 20:00:00+00:00,0.0
2024-01-30 14:00:00+00:00,0.0
2024-01-30 15:00:00+00:00,0.0
2024-01-30 16:00:00+00:00,0.0
2024-01-30 17:00:00+00:00,0.0
2024-01-30 18:00:00+00:00,0.0
2024-01-30 19:00:00+00:00,0.0
2024-01-30 20:00:00+00:00,0.0
2024-01-31 14:00:00+00:00,0.0
2024-01-31 15:00:00+00:00,0.0
2024-01-31 16:00:00+00:00,0.0
2024-01-31 17:00:00+00:00,0.0
2024-01-31 18:00:00+00:00,0.0
2024-01-31 19:00:00+00:00,0.0
2024-01-31 20:00:00+00:00,0.0
2024-02-01 14:00:00+00:00,0.0
2024-02-01 15:00:00+00:00,0.0
2024-02-01 16:00:00+00:00,0.0
2024-02-01 17:00:00+00:00,0.0
2024-02-01 18:00:00+00:00,0.0
2024-02-01 19:00:00+00:00,0.0
2024-02-01 20:00:00+00:00,0.0
2024-02-02 14:00:00+00:00,0.0
2024-02-02 15:00:00+00:00,0.0
2024-02-02 16:00:00+00:00,0.0
2024-02-02 17:00:00+00:00,0.0
2024-02-02 18:00:00+00:00,0.0
2024-02-02 19:00:00+00:00,0.0
2024-02-02 20:00:00+00:00,0.0
2024-02-05 14:00:00+00:00,0.0
2024-02-05 15:00:00+00:00,0.0
2024-02-05 16:00:00+00:00,0.0
2024-02-05 17:00:00+00:00,0.0
2024-02-05 18:00:00+00:00,0.0
2024-02-05 19:00:00+00:00,0.0
2024-02-05 20:00:00+00:00,0.0
2024-02-06 14:00:00+00:00,0.0
2024-02-06 15:00:00+00:00,0.0
2024-02-06 16:00:00+00:00,0.0
2024-02-06 17:00:00+00:00,0.0
2024-02-06 18:00:00+00:00,0.0
2024-02-06 19:00:00+00:00,0.0
2024-02-06 20:00:00+00:00,0.0
2024-02-07 14:00:00+00:00,0.0
2024-02-07 15:00:00+00:00,0.0
2024-02-07 16:00:00+00:00,0.0
2024-02-07 17:00:00+00:00,0.0
2024-02-07 18:00:00+00:00,0.0
2024-02-07 19:00:00+00:00,0.0
2024-02-07 20:00:00+00:00,0.0
2024-02-08 14:00:00+00:00,0.0
2024-02-08 15:00:00+00:00,0.0
2024-02-08 16:00:00+00:00,0.0
2024-02-08 17:00:00+00:00,0.0
2024-02-08 18:00:00+00:00,0.0
2024-02-08 19:00:00+00:00,0.0
2024-02-08 20:00:00+00:00,0.0
2024-02-09 14:00:00+00:00,0.0
2024-02-09 15:00:00+00:00,0.0
2024-02-09 16:00:00+00:00,0.0
2024-02-09 17:00:00+00:00,0.0
2024-02-09 18:00:00+00:00,0.0
2024-02-09 19:00:00+00:00,0.0
2024-02-09 20:00:00+00:00,0.0
2024-02-12 14:00:00+00:00,0.0
2024-02-12 15:00:00+00:00,0.0
2024-02-12 16:00:00+00:00,0.0
2024-02-12 17:00:00+00:00,0.0
2024-02-12 18:00:00+00:00,0.0
2024-02-12 19:00:00+00:00,0.0
2024-02-12 20:00:00+00:00,0.0
2024-02-13 14:00:00+00:00,0.0
2024-02-13 15:00:00+00:00,0.0
2024-02-13 16:00:00+00:00,0.0
2024-02-13 17:00:00+00:00,0.0
2024-02-13 18:00:00+00:00,0.0
2024-02-13 19:00:00+00:00,0.0
2024-02-13 20:00:00+00:00,0.0
2024-02-14 14:00:00+00:00,0.0
2024-02-14 15:00:00+00:00,0.0
2024-02-14 16:00:00+00:00,0.0
2024-02-14 17:00:00+00:00,0.0
2024-02-14 18:00:00+00:00,0.0
2024-02-14 19:00:00+00:00,0.0
2024-02-14 20:00:00+00:00,0.0
2024-02-15 14:00:00+00:00,0.0
2024-02-15 15:00:00+00:00,0.0
2024-02-15 16:00:00+00:00,0.0
2024-02-15 17:00:00+00:00,0.0
2024-02-15 18:00:00+00:00,0.0
2024-02-15 19:00:00+00:00,0.0
2024-02-15 20:00:00+00:00,0.0
2024-02-16 14:00:00+00:00,0.0
2024-02-16 15:00:00+00:00,0.0
2024-02-16 16:00:00+00:00,0.0
2024-02-16 17:00:00+00:00,0.0
2024-02-16 18:00:00+00:00,0.0
2024-02-16 19:00:00+00:00,0.0
2024-02-16 20:00:00+00:00,0.0
2024-02-20 14:00:00+00:00,0.0
2024-02-20 15:00:00+00:00,0.0
2024-02-20 16:00:00+00:00,0.0
2024-02-20 17:00:00+00:00,0.0
2024-02-20 18:00:00+00:00,0.0
2024-02-20 19:00:00+00:00,0.0
2024-02-20 20:00:00+00:00,0.0
2024-02-21 14:00:00+00:00,0.0
2024-02-21 15:00:00+00:00,0.0
2024-02-21 16:00:00+00:00,0.0
2024-02-21 17:00:00+00:00,0.0
2024-02-21 18:00:00+00:00,0.0
2024-02-21 19:00:00+00:00,0.0
2024-02-21 20:00:00+00:00,0.0
2024-02-22 14:00:00+00:00,0.0
2024-02-22 15:00:00+00:00,0.0
2024-02-22 16:00:00+00:00,0.0
2024-02-22 17:00:00+00:00,0.0
2024-02-22 18:00:00+00:00,0.0
2024-02-22 19:00:00+00:00,0.0
2024-02-22 20:00:00+00:00,0.0
2024-02-23 14:00:00+00:00,0.0
2024-02-23 15:00:00+00:00,0.0
2024-02-23 16:00:00+00:00,0.0
2024-02-23 17:00:00+00:00,0.0
2024-02-23 18:00:00+00:00,0.0
2024-02-23 19:00:00+00:00,0.0
2024-02-23 20:00:00+00:00,0.0
2024-02-26 14:00:00+00:00,0.0
2024-02-26 15:00:00+00:00,0.0
2024-02-26 16:00:00+00:00,0.0
2024-02-26 17:00:00+00:00,0.0
2024-02-26 18:00:00+00:00,0.0
2024-02-26 19:00:00+00:00,0.0
2024-02-26 20:00:00+00:00,0.0
2024-02-27 14:00:00+00:00,0.0
2024-02-27 15:00:00+00:00,0.0
2024-02-27 16:00:00+00:00,0.0
2024-02-27 17:00:00+00:00,0.0
2024-02-27 18:00:00+00:00,0.0
2024-02-27 19:00:00+00:00,0.0
2024-02-27 20:00:00+00:00,0.0
2024-02-28 14:00:00+00:00,0.0
2024-02-28 15:00:00+00:00,0.0
2024-02-28 16:00:00+00:00,0.0
2024-02-28 17:00:00+00:00,0.0
2024-02-28 18:00:00+00:00,0.0
2024-02-28 19:00:00+00:00,0.0
2024-02-28 20:00:00+00:00,0.0
2024-02-29 14:00:00+00:00,0.0
2024-02-29 15:00:00+00:00,0.0
2024-02-29 16:00:00+00:00,0.0
2024-02-29 17:00:00+00:00,0.0
2024-02-29 18:00:00+00:00,0.0
2024-02-29 19:00:00+00:00,0.0
2024-02-29 20:00:00+00:00,0.0
2024-03-01 14:00:00+00:00,0.0
2024-03-01 15:00:00+00:00,0.0
2024-03-01 16:00:00+00:00,0.0
2024-03-01 17:00:00+00:00,0.0
2024-03-01 18:00:00+00:00,0.0
2024-03-01 19:00:00+00:00,0.0
2024-03-01 20:00:00+00:00,0.0
2024-03-04 14:00:00+00:00,0.0
2024-03-04 15:00:00+00:00,0.0
2024-03-04 16:00:00+00:00,0.0
2024-03-04 17:00:00+00:00,0.0
2024-03-04 18:00:00+00:00,0.0
2024-03-04 19:00:00+00:00,0.0
2024-03-04 20:00:00+00:00,0.0
2024-03-05 14:00:00+00:00,0.0
2024-03-05 15:00:00+00:00,0.0
2024-03-05 16:00:00+00:00,0.0
2024-03-05 17:00:00+00:00,0.0
2024-03-05 18:00:00+00:00,0.0
2024-03-05 19:00:00+00:00,0.0
2024-03-05 20:00:00+00:00,0.0
2024-03-06 14:00:00+00:00,0.0
2024-03-06 15:00:00+00:00,0.0
2024-03-06 16:00:00+00:00,0.0
2024-03-06 17:00:00+00:00,0.0
2024-03-06 18:00:00+00:00,0.0
2024-03-06 19:00:00+00:00,0.0
2024-03-06 20:00:00+00:00,0.0
2024-03-07 14:00:00+00:00,0.0
2024-03-07 15:00:00+00:00,0.0
2024-03-07 16:00:00+00:00,0.0
2024-03-07 17:00:00+00:00,0.0
2024-03-07 18:00:00+00:00,0.0
2024-03-07 19:00:00+00:00,0.0
2024-03-07 20:00:00+00:00,0.0
2024-03-08 14:00:00+00:00,0.0
2024-03-08 15:00:00+00:00,0.0
2024-03-08 16:00:00+00:00,0.0
2024-03-08 17:00:00+00:00,0.0
2024-03-08 18:00:00+00:00,0.0
2024-03-08 19:00:00+00:00,0.0
2024-03-08 20:00:00+00:00,0.0
2024-03-11 13:00:00+00:00,0.0
2024-03-11 14:00:00+00:00,0.0
2024-03-11 15:00:00+00:00,0.0
2024-03-11 16:00:00+00:00,0.0
2024-03-11 17:00:00+00:00,0.0
2024-03-11 18:00:00+00:00,0.0
2024-03-11 19:00:00+00:00,0.0
2024-03-12 13:00:00+00:00,0.0
2024-03-12 14:00:00+00:00,0.0
2024-03-12 15:00:00+00:00,0.0
2024-03-12 16:00:00+00:00,0.0
2024-03-12 17:00:00+00:00,0.0
2024-03-12 18:00:00+00:00,0.0
2024-03-12 19:00:00+00:00,0.0
2024-03-13 13:00:00+00:00,0.0
2024-03-13 14:00:00+00:00,0.0
2024-03-13 15:00:00+00:00,0.0
2024-03-13 16:00:00+00:00,0.0
2024-03-13 17:00:00+00:00,0.0
2024-03-13 18:00:00+00:00,0.0
2024-03-13 19:00:00+00:00,0.0
2024-03-14 13:00:00+00:00,0.0
2024-03-14 14:00:00+00:00,0.0
2024-03-14 15:00:00+00:00,0.0
2024-03-14 16:00:00+00:00,0.0
2024-03-14 17:00:00+00:00,0.0
2024-03-14 18:00:00+00:00,0.0
2024-03-14 19:00:00+00:00,0.0
2024-03-15 13:00:00+00:00,0.0
2024-03-15 14:00:00+00:00,0.0
2024-03-15 15:00:00+00:00,0.0
2024-03-15 16:00:00+00:00,0.0
2024-03-15 17:00:00+00:00,0.0
2024-03-15 18:00:00+00:00,0.0
2024-03-15 19:00:00+00:00,0.0
2024-03-18 13:00:00+00:00,0.0
2024-03-18 14:00:00+00:00,0.0
2024-03-18 15:00:00+00:00,0.0
2024-03-18 16:00:00+00:00,0.0
2024-03-18 17:00:00+00:00,0.0
2024-03-18 18:00:00+00:00,0.0
2024-03-18 19:00:00+00:00,0.0
2024-03-19 13:00:00+00:00,0.0
2024-03-19 14:00:00+00:00,0.0
2024-03-19 15:00:00+00:00,0.0
2024-03-19 16:00:00+00:00,0.0
2024-03-19 17:00:00+00:00,0.0
2024-03-19 18:00:00+00:00,0.0
2024-03-19 19:00:00+00:00,0.0
2024-03-20 13:00:00+00:00,0.0
2024-03-20 14:00:00+00:00,0.0
2024-03-20 15:00:00+00:00,0.0
2024-03-20 16:00:00+00:00,0.0
2024-03-20 17:00:00+00:00,0.0
2024-03-20 18:00:00+00:00,0.0
2024-03-20 19:00:00+00:00,0.0
2024-03-21 13:00:00+00:00,0.0
2024-03-21 14:00:00+00:00,0.0
2024-03-21 15:00:00+00:00,0.0
2024-03-21 16:00:00+00:00,0.0
2024-03-21 17:00:00+00:00,0.0
2024-03-21 18:00:00+00:00,0.0
2024-03-21 19:00:00+00:00,0.0
2024-03-22 13:00:00+00:00,0.0
2024-03-22 14:00:00+00:00,0.0
2024-03-22 15:00:00+00:00,0.0
2024-03-22 16:00:00+00:00,0.0
2024-03-22 17:00:00+00:00,0.0
2024-03-22 18:00:00+00:00,0.0
2024-03-22 19:00:00+00:00,0.0
2024-03-25 13:00:00+00:00,0.0
2024-03-25 14:00:00+00:00,0.0
2024-03-25 15:00:00+00:00,0.0
2024-03-25 16:00:00+00:00,0.0
2024-03-25 17:00:00+00:00,0.0
2024-03-25 18:00:00+00:00,0.0
2024-03-25 19:00:00+00:00,0.0
2024-03-26 13:00:00+00:00,0.0
2024-03-26 14:00:00+00:00,0.0
2024-03-26 15:00:00+00:00,0.0
2024-03-26 16:00:00+00:00,0.0
2024-03-26 17:00:00+00:00,0.0
2024-03-26 18:00:00+00:00,0.0
2024-03-26 19:00:00+00:00,0.0
2024-03-27 13:00:00+00:00,0.0
2024-03-27 14:00:00+00:00,0.0
2024-03-27 15:00:00+00:00,0.0
2024-03-27 16:00:00+00:00,0.0
2024-03-27 17:00:00+00:00,0.0
2024-03-27 18:00:00+00:00,0.0
2024-03-27 19:00:00+00:00,0.0
2024-03-28 13:00:00+00:00,0.0
2024-03-28 14:00:00+00:00,0.0
2024-03-28 15:00:00+00:00,0.0
2024-03-28 16:00:00+00:00,0.0
2024-03-28 17:00:00+00:00,0.0
2024-03-28 18:00:00+00:00,0.0
2024-03-28 19:00:00+00:00,0.0
2024-04-01 13:00:00+00:00,0.0
2024-04-01 14:00:00+00:00,0.0
2024-04-01 15:00:00+00:00,0.0
2024-04-01 16:00:00+00:00,0.0
2024-04-01 17:00:00+00:00,0.0
2024-04-01 18:00:00+00:00,0.0
2024-04-01 19:00:00+00:00,0.0
2024-04-02 13:00:00+00:00,0.0
2024-04-02 14:00:00+00:00,0.0
2024-04-02 15:00:00+00:00,0.0
2024-04-02 16:00:00+00:00,0.0
2024-04-02 17:00:00+00:00,0.0
2024-04-02 18:00:00+00:00,0.0
2024-04-02 19:00:00+00:00,0.0
2024-04-03 13:00:00+00:00,0.0
2024-04-03 14:00:00+00:00,0.0
2024-04-03 15:00:00+00:00,0.0
2024-04-03 16:00:00+00:00,0.0
2024-04-03 17:00:00+00:00,0.0
2024-04-03 18:00:00+00:00,0.0
2024-04-03 19:00:00+00:00,0.0
2024-04-04 13:00:00+00:00,0.0
2024-04-04 14:00:00+00:00,0.0
2024-04-04 15:00:00+00:00,0.0
2024-04-04 16:00:00+00:00,0.0
2024-04-04 17:00:00+00:00,0.0
2024-04-04 18:00:00+00:00,0.0
2024-04-04 19:00:00+00:00,0.0
2024-04-05 13:00:00+00:00,0.0
2024-04-05 14:00:00+00:00,0.0
2024-04-05 15:00:00+00:00,0.0
2024-04-05 16:00:00+00:00,0.0
2024-04-05 17:00:00+00:00,0.0
2024-04-05 18:00:00+00:00,0.0
2024-04-05 19:00:00+00:00,0.0
2024-04-08 13:00:00+00:00,0.0
2024-04-08 14:00:00+00:00,0.0
2024-04-08 15:00:00+00:00,0.0
2024-04-08 16:00:00+00:00,0.0
2024-04-08 17:00:00+00:00,0.0
2024-04-08 18:00:00+00:00,0.0
2024-04-08 19:00:00+00:00,0.0
2024-04-09 13:00:00+00:00,0.0
2024-04-09 14:00:00+00:00,0.0
2024-04-09 15:00:00+00:00,0.0
2024-04-09 16:00:00+00:00,0.0
2024-04-09 17:00:00+00:00,0.0
2024-04-09 18:00:00+00:00,0.0
2024-04-09 19:00:00+00:00,0.0
2024-04-10 13:00:00+00:00,0.0
2024-04-10 14:00:00+00:00,0.0
2024-04-10 15:00:00+00:00,0.0
2024-04-10 16:00:00+00:00,0.0
2024-04-10 17:00:00+00:00,0.0
2024-04-10 18:00:00+00:00,0.0
2024-04-10 19:00:00+00:00,0.0
2024-04-11 13:00:00+00:00,0.0
2024-04-11 14:00:00+00:00,0.0
2024-04-11 15:00:00+00:00,0.0
2024-04-11 16:00:00+00:00,0.0
2024-04-11 17:00:00+00:00,0.0
2024-04-11 18:00:00+00:00,0.0
2024-04-11 19:00:00+00:00,0.0
2024-04-12 13:00:00+00:00,0.0
2024-04-12 14:00:00+00:00,0.0
2024-04-12 15:00:00+00:00,0.0
2024-04-12 16:00:00+00:00,0.0
2024-04-12 17:00:00+00:00,0.0
2024-04-12 18:00:00+00:00,0.0
2024-04-12 19:00:00+00:00,0.0
2024-04-15 13:00:00+00:00,0.0
2024-04-15 14:00:00+00:00,0.0
2024-04-15 15:00:00+00:00,0.0
2024-04-15 16:00:00+00:00,0.0
2024-04-15 17:00:00+00:00,0.0
2024-04-15 18:00:00+00:00,0.0
2024-04-15 19:00:00+00:00,0.0
2024-04-16 13:00:00+00:00,0.0
2024-04-16 14:00:00+00:00,0.0
2024-04-16 15:00:00+00:00,0.0
2024-04-16 16:00:00+00:00,0.0
2024-04-16 17:00:00+00:00,0.0
2024-04-16 18:00:00+00:00,0.0
2024-04-16 19:00:00+00:00,0.0
2024-04-17 13:00:00+00:00,0.0
2024-04-17 14:00:00+00:00,0.0
2024-04-17 15:00:00+00:00,0.0
2024-04-17 16:00:00+00:00,0.0
2024-04-17 17:00:00+00:00,0.0
2024-04-17 18:00:00+00:00,0.0
2024-04-17 19:00:00+00:00,0.0
2024-04-18 13:00:00+00:00,0.0
2024-04-18 14:00:00+00:00,0.0
2024-04-18 15:00:00+00:00,0.0
2024-04-18 16:00:00+00:00,0.0
2024-04-18 17:00:00+00:00,0.0
2024-04-18 18:00:00+00:00,0.0
2024-04-18 19:00:00+00:00,0.0
2024-04-19 13:00:00+00:00,0.0
2024-04-19 14:00:00+00:00,0.0
2024-04-19 15:00:00+00:00,0.0
2024-04-19 16:00:00+00:00,0.0
2024-04-19 17:00:00+00:00,0.0
2024-04-19 18:00:00+00:00,0.0
2024-04-19 19:00:00+00:00,0.0
2024-04-22 13:00:00+00:00,0.0
2024-04-22 14:00:00+00:00,0.0
2024-04-22 15:00:00+00:00,0.0
2024-04-22 16:00:00+00:00,0.0
2024-04-22 17:00:00+00:00,0.0
2024-04-22 18:00:00+00:00,0.0
2024-04-22 19:00:00+00:00,0.0
2024-04-23 13:00:00+00:00,0.0
2024-04-23 14:00:00+00:00,0.0
2024-04-23 15:00:00+00:00,0.0
2024-04-23 16:00:00+00:00,0.0
2024-04-23 17:00:00+00:00,0.0
2024-04-23 18:00:00+00:00,0.0
2024-04-23 19:00:00+00:00,0.0
2024-04-24 13:00:00+00:00,0.0
2024-04-24 14:00:00+00:00,0.0
2024-04-24 15:00:00+00:00,0.0
2024-04-24 16:00:00+00:00,0.0
2024-04-24 17:00:00+00:00,0.0
2024-04-24 18:00:00+00:00,0.0
2024-04-24 19:00:00+00:00,0.0
2024-04-25 13:00:00+00:00,0.0
2024-04-25 14:00:00+00:00,0.0
2024-04-25 15:00:00+00:00,0.0
2024-04-25 16:00:00+00:00,0.0
2024-04-25 17:00:00+00:00,0.0
2024-04-25 18:00:00+00:00,0.0
2024-04-25 19:00:00+00:00,0.0
2024-04-26 13:00:00+00:00,0.0
2024-04-26 14:00:00+00:00,0.0
2024-04-26 15:00:00+00:00,0.0
2024-04-26 16:00:00+00:00,0.0
2024-04-26 17:00:00+00:00,0.0
2024-04-26 18:00:00+00:00,0.0
2024-04-26 19:00:00+00:00,0.0
2024-04-29 13:00:00+00:00,0.0
2024-04-29 14:00:00+00:00,0.0
2024-04-29 15:00:00+00:00,0.0
2024-04-29 16:00:00+00:00,0.0
2024-04-29 17:00:00+00:00,0.0
2024-04-29 18:00:00+00:00,0.0
2024-04-29 19:00:00+00:00,0.0
2024-04-30 13:00:00+00:00,0.0
2024-04-30 14:00:00+00:00,0.0
2024-04-30 15:00:00+00:00,0.0
2024-04-30 16:00:00+00:00,0.0
2024-04-30 17:00:00+00:00,0.0
2024-04-30 18:00:00+00:00,0.0
2024-04-30 19:00:00+00:00,0.0
2024-05-01 13:00:00+00:00,0.0
2024-05-01 14:00:00+00:00,0.0
2024-05-01 15:00:00+00:00,0.0
2024-05-01 16:00:00+00:00,0.0
2024-05-01 17:00:00+00:00,0.0
2024-05-01 18:00:00+00:00,0.0
2024-05-01 19:00:00+00:00,0.0
2024-05-02 13:00:00+00:00,0.0
2024-05-02 14:00:00+00:00,0.0
2024-05-02 15:00:00+00:00,0.0
2024-05-02 16:00:00+00:00,0.0
2024-05-02 17:00:00+00:00,0.0
2024-05-02 18:00:00+00:00,0.0
2024-05-02 19:00:00+00:00,0.0
2024-05-03 13:00:00+00:00,0.0
2024-05-03 14:00:00+00:00,0.0
2024-05-03 15:00:00+00:00,0.0
2024-05-03 16:00:00+00:00,0.0
2024-05-03 17:00:00+00:00,0.0
2024-05-03 18:00:00+00:00,0.0
2024-05-03 19:00:00+00:00,0.0
2024-05-06 13:00:00+00:00,0.0
2024-05-06 14:00:00+00:00,0.0
2024-05-06 15:00:00+00:00,0.0
2024-05-06 16:00:00+00:00,0.0
2024-05-06 17:00:00+00:00,0.0
2024-05-06 18:00:00+00:00,0.0
2024-05-06 19:00:00+00:00,0.0
2024-05-07 13:00:00+00:00,0.0
2024-05-07 14:00:00+00:00,0.0
2024-05-07 15:00:00+00:00,0.0
2024-05-07 16:00:00+00:00,0.0
2024-05-07 17:00:00+00:00,0.0
2024-05-07 18:00:00+00:00,0.0
2024-05-07 19:00:00+00:00,0.0
2024-05-08 13:00:00+00:00,0.0
2024-05-08 14:00:00+00:00,0.0
2024-05-08 15:00:00+00:00,0.0
2024-05-08 16:00:00+00:00,0.0
2024-05-08 17:00:00+00:00,0.0
2024-05-08 18:00:00+00:00,0.0
2024-05-08 19:00:00+00:00,0.0
2024-05-09 13:00:00+00:00,0.0
2024-05-09 14:00:00+00:00,0.0
2024-05-09 15:00:00+00:00,0.0
2024-05-09 16:00:00+00:00,0.0
2024-05-09 17:00:00+00:00,0.0
2024-05-09 18:00:00+00:00,0.0
2024-05-09 19:00:00+00:00,0.0
2024-05-10 13:00:00+00:00,0.0
2024-05-10 14:00:00+00:00,0.0
2024-05-10 15:00:00+00:00,0.0
2024-05-10 16:00:00+00:00,0.0
2024-05-10 17:00:00+00:00,0.0
2024-05-10 18:00:00+00:00,0.0
2024-05-10 19:00:00+00:00,0.0
2024-05-13 13:00:00+00:00,0.0
2024-05-13 14:00:00+00:00,0.0
2024-05-13 15:00:00+00:00,0.0
2024-05-13 16:00:00+00:00,0.0
2024-05-13 17:00:00+00:00,0.0
2024-05-13 18:00:00+00:00,0.0
2024-05-13 19:00:00+00:00,0.0
2024-05-14 13:00:00+00:00,0.0
2024-05-14 14:00:00+00:00,0.0
2024-05-14 15:00:00+00:00,0.0
2024-05-14 16:00:00+00:00,0.0
2024-05-14 17:00:00+00:00,0.0
2024-05-14 18:00:00+00:00,0.0
2024-05-14 19:00:00+00:00,0.0
2024-05-15 13:00:00+00:00,0.0
2024-05-15 14:00:00+00:00,0.0
2024-05-15 15:00:00+00:00,0.0
2024-05-15 16:00:00+00:00,0.0
2024-05-15 17:00:00+00:00,0.0
2024-05-15 18:00:00+00:00,0.0
2024-05-15 19:00:00+00:00,0.0
2024-05-16 13:00:00+00:00,0.0
2024-05-16 14:00:00+00:00,0.0
2024-05-16 15:00:00+00:00,0.0
2024-05-16 16:00:00+00:00,0.0
2024-05-16 17:00:00+00:00,0.0
2024-05-16 18:00:00+00:00,0.0
2024-05-16 19:00:00+00:00,0.0
2024-05-17 13:00:00+00:00,0.0
2024-05-17 14:00:00+00:00,0.0
2024-05-17 15:00:00+00:00,0.0
2024-05-17 16:00:00+00:00,0.0
2024-05-17 17:00:00+00:00,0.0
2024-05-17 18:00:00+00:00,0.0
2024-05-17 19:00:00+00:00,0.0
2024-05-20 13:00:00+00:00,0.0
2024-05-20 14:00:00+00:00,0.0
2024-05-20 15:00:00+00:00,0.0
2024-05-20 16:00:00+00:00,0.0
2024-05-20 17:00:00+00:00,0.0
2024-05-20 18:00:00+00:00,0.0
2024-05-20 19:00:00+00:00,0.0
2024-05-21 13:00:00+00:00,0.0
2024-05-21 14:00:00+00:00,0.0
2024-05-21 15:00:00+00:00,0.0
2024-05-21 16:00:00+00:00,0.0
2024-05-21 17:00:00+00:00,0.0
2024-05-21 18:00:00+00:00,0.0
2024-05-21 19:00:00+00:00,0.0
2024-05-22 13:00:00+00:00,0.0
2024-05-22 14:00:00+00:00,0.0
2024-05-22 15:00:00+00:00,0.0
2024-05-22 16:00:00+00:00,0.0
2024-05-22 17:00:00+00:00,0.0
2024-05-22 18:00:00+00:00,0.0
2024-05-22 19:00:00+00:00,0.0
2024-05-23 13:00:00+00:00,0.0
2024-05-23 14:00:00+00:00,0.0
2024-05-23 15:00:00+00:00,0.0
2024-05-23 16:00:00+00:00,0.0
2024-05-23 17:00:00+00:00,0.0
2024-05-23 18:00:00+00:00,0.0
2024-05-23 19:00:00+00:00,0.0
2024-05-24 13:00:00+00:00,0.0
2024-05-24 14:00:00+00:00,0.0
2024-05-24 15:00:00+00:00,0.0
2024-05-24 16:00:00+00:00,0.0
2024-05-24 17:00:00+00:00,0.0
2024-05-24 18:00:00+00:00,0.0
2024-05-24 19:00:00+00:00,0.0
2024-05-28 13:00:00+00:00,0.0
2024-05-28 14:00:00+00:00,0.0
2024-05-28 15:00:00+00:00,0.0
2024-05-28 16:00:00+00:00,0.0
2024-05-28 17:00:00+00:00,0.0
2024-05-28 18:00:00+00:00,0.0
2024-05-28 19:00:00+00:00,0.0
2024-05-29 13:00:00+00:00,0.0
2024-05-29 14:00:00+00:00,0.0
2024-05-29 15:00:00+00:00,0.0
2024-05-29 16:00:00+00:00,0.0
2024-05-29 17:00:00+00:00,0.0
2024-05-29 18:00:00+00:00,0.0
2024-05-29 19:00:00+00:00,0.0
2024-05-30 13:00:00+00:00,0.0
2024-05-30 14:00:00+00:00,0.0
2024-05-30 15:00:00+00:00,0.0
2024-05-30 16:00:00+00:00,0.0
2024-05-30 17:00:00+00:00,0.0
2024-05-30 18:00:00+00:00,0.0
2024-05-30 19:00:00+00:00,0.0
2024-05-31 13:00:00+00:00,0.0
2024-05-31 14:00:00+00:00,0.0
2024-05-31 15:00:00+00:00,0.0
2024-05-31 16:00:00+00:00,0.0
2024-05-31 17:00:00+00:00,0.0
2024-05-31 18:00:00+00:00,0.0
2024-05-31 19:00:00+00:00,0.0
2024-06-03 13:00:00+00:00,0.0
2024-06-03 14:00:00+00:00,0.0
2024-06-03 15:00:00+00:00,0.0
2024-06-03 16:00:00+00:00,0.0
2024-06-03 17:00:00+00:00,0.0
2024-06-03 18:00:00+00:00,0.0
2024-06-03 19:00:00+00:00,0.0
2024-06-04 13:00:00+00:00,0.0
2024-06-04 14:00:00+00:00,0.0
2024-06-04 15:00:00+00:00,0.0
2024-06-04 16:00:00+00:00,0.0
2024-06-04 17:00:00+00:00,0.0
2024-06-04 18:00:00+00:00,0.0
2024-06-04 19:00:00+00:00,0.0
2024-06-05 13:00:00+00:00,0.0
2024-06-05 14:00:00+00:00,0.0
2024-06-05 17:00:00+00:00,0.0
2024-06-05 19:00:00+00:00,0.0
2024-06-06 13:00:00+00:00,0.0
2024-06-06 14:00:00+00:00,0.0
2024-06-07 13:00:00+00:00,0.0
2024-06-07 14:00:00+00:00,0.0
2024-06-07 15:00:00+00:00,0.0
2024-06-07 16:00:00+00:00,0.0
2024-06-07 17:00:00+00:00,0.0
2024-06-07 18:00:00+00:00,0.0
2024-06-07 19:00:00+00:00,0.0
2024-06-10 13:00:00+00:00,0.0
2024-06-10 14:00:00+00:00,0.0
2024-06-10 16:00:00+00:00,0.0
2024-06-10 17:00:00+00:00,0.0
2024-06-10 18:00:00+00:00,0.0
2024-06-10 19:00:00+00:00,0.0
2024-06-11 13:00:00+00:00,0.0
2024-06-11 14:00:00+00:00,0.0
2024-06-11 15:00:00+00:00,0.0
2024-06-11 17:00:00+00:00,0.0
2024-06-11 18:00:00+00:00,0.0
2024-06-11 19:00:00+00:00,0.0
2024-06-12 13:00:00+00:00,0.0
2024-06-12 15:00:00+00:00,0.0
2024-06-12 18:00:00+00:00,0.0
2024-06-12 19:00:00+00:00,0.0
2024-06-13 13:00:00+00:00,0.0
2024-06-13 14:00:00+00:00,0.0
2024-06-13 15:00:00+00:00,0.0
2024-06-13 17:00:00+00:00,0.0
2024-06-13 18:00:00+00:00,0.0
2024-06-13 19:00:00+00:00,0.0
2024-06-14 13:00:00+00:00,0.0
2024-06-14 14:00:00+00:00,0.0
2024-06-14 15:00:00+00:00,0.0
2024-06-14 17:00:00+00:00,0.0
2024-06-14 19:00:00+00:00,0.0
2024-06-17 13:00:00+00:00,0.0
2024-06-17 14:00:00+00:00,0.0
2024-06-17 16:00:00+00:00,0.0
2024-06-17 17:00:00+00:00,0.0
2024-06-17 18:00:00+00:00,0.0
2024-06-17 19:00:00+00:00,0.0
2024-06-18 15:00:00+00:00,0.0
2024-06-18 16:00:00+00:00,0.0
2024-06-18 17:00:00+00:00,0.0
2024-06-18 18:00:00+00:00,0.0
2024-06-18 19:00:00+00:00,0.0
2024-06-20 13:00:00+00:00,0.0
2024-06-20 15:00:00+00:00,0.0
2024-06-20 16:00:00+00:00,0.0
2024-06-20 17:00:00+00:00,0.0
2024-06-20 18:00:00+00:00,0.0
2024-06-21 13:00:00+00:00,0.0
2024-06-21 17:00:00+00:00,0.0
2024-06-21 19:00:00+00:00,0.0
2024-06-24 13:00:00+00:00,0.0
2024-06-24 14:00:00+00:00,0.0
2024-06-24 15:00:00+00:00,0.0
2024-06-24 19:00:00+00:00,0.0
2024-06-25 13:00:00+00:00,0.0
2024-06-25 14:00:00+00:00,0.0
2024-06-25 15:00:00+00:00,0.0
2024-06-25 16:00:00+00:00,0.0
2024-06-25 17:00:00+00:00,0.0
2024-06-25 19:00:00+00:00,0.0
2024-06-26 13:00:00+00:00,0.0
2024-06-26 14:00:00+00:00,0.0
2024-06-26 15:00:00+00:00,0.0
2024-06-26 16:00:00+00:00,0.0
2024-06-26 18:00:00+00:00,0.0
2024-06-26 19:00:00+00:00,0.0
2024-06-27 14:00:00+00:00,0.0
2024-06-27 18:00:00+00:00,0.0
2024-06-27 19:00:00+00:00,0.0
2024-06-28 13:00:00+00:00,0.0
2024-06-28 15:00:00+00:00,0.0
2024-06-28 17:00:00+00:00,0.0
2024-06-28 18:00:00+00:00,0.0
2024-06-28 19:00:00+00:00,0.0
2024-07-01 13:00:00+00:00,0.0
2024-07-01 14:00:00+00:00,0.0
2024-07-01 15:00:00+00:00,0.0
2024-07-01 17:00:00+00:00,0.0
2024-07-01 18:00:00+00:00,0.0
2024-07-02 13:00:00+00:00,0.0
2024-07-02 16:00:00+00:00,0.0
2024-07-02 18:00:00+00:00,0.0
2024-07-02 19:00:00+00:00,0.0
2024-07-03 13:00:00+00:00,0.0
2024-07-03 14:00:00+00:00,0.0
2024-07-03 15:00:00+00:00,0.0
2024-07-05 13:00:00+00:00,0.0
2024-07-05 15:00:00+00:00,0.0
2024-07-05 16:00:00+00:00,0.0
2024-07-05 18:00:00+00:00,0.0
2024-07-05 19:00:00+00:00,0.0
2024-07-08 13:00:00+00:00,0.0
2024-07-08 14:00:00+00:00,0.0
2024-07-08 15:00:00+00:00,0.0
2024-07-08 16:00:00+00:00,0.0
2024-07-08 17:00:00+00:00,0.0
2024-07-08 18:00:00+00:00,0.0
2024-07-08 19:00:00+00:00,0.0
2024-07-09 13:00:00+00:00,0.0
2024-07-09 14:00:00+00:00,0.0
2024-07-09 16:00:00+00:00,0.0
2024-07-09 17:00:00+00:00,0.0
2024-07-09 18:00:00+00:00,0.0
2024-07-10 13:00:00+00:00,0.0
2024-07-10 14:00:00+00:00,0.0
2024-07-10 15:00:00+00:00,0.0
2024-07-10 16:00:00+00:00,0.0
2024-07-10 17:00:00+00:00,0.0
2024-07-10 18:00:00+00:00,0.0
2024-07-10 19:00:00+00:00,0.0
2024-07-11 13:00:00+00:00,0.0
2024-07-11 14:00:00+00:00,0.0
2024-07-11 15:00:00+00:00,0.0
2024-07-11 16:00:00+00:00,0.0
2024-07-11 17:00:00+00:00,0.0
2024-07-11 18:00:00+00:00,0.0
2024-07-12 13:00:00+00:00,0.0
2024-07-12 14:00:00+00:00,0.0
2024-07-12 16:00:00+00:00,0.0
2024-07-15 14:00:00+00:00,0.0
2024-07-15 15:00:00+00:00,0.0
2024-07-15 16:00:00+00:00,0.0
2024-07-15 17:00:00+00:00,0.0
2024-07-15 18:00:00+00:00,0.0
2024-07-15 19:00:00+00:00,0.0
2024-07-16 13:00:00+00:00,0.0
2024-07-16 14:00:00+00:00,0.0
2024-07-16 17:00:00+00:00,0.0
2024-07-16 18:00:00+00:00,0.0
2024-07-16 19:00:00+00:00,0.0
2024-07-17 13:00:00+00:00,0.0
2024-07-17 14:00:00+00:00,0.0
2024-07-17 16:00:00+00:00,0.0
2024-07-17 17:00:00+00:00,0.0
2024-07-17 18:00:00+00:00,0.0
2024-07-17 19:00:00+00:00,0.0
2024-07-18 13:00:00+00:00,0.0
2024-07-18 14:00:00+00:00,0.0
2024-07-18 18:00:00+00:00,0.0
2024-07-18 19:00:00+00:00,0.0
2024-07-19 13:00:00+00:00,0.0
2024-07-19 14:00:00+00:00,0.0
2024-07-19 15:00:00+00:00,0.0
2024-07-19 17:00:00+00:00,0.0
2024-07-19 19:00:00+00:00,0.0
2024-07-22 13:00:00+00:00,0.0
2024-07-22 14:00:00+00:00,0.0
2024-07-22 15:00:00+00:00,0.0
2024-07-22 18:00:00+00:00,0.0
2024-07-22 19:00:00+00:00,0.0
2024-07-23 13:00:00+00:00,0.0
2024-07-23 15:00:00+00:00,0.0
2024-07-23 18:00:00+00:00,0.0
2024-07-23 19:00:00+00:00,0.0
2024-07-24 13:00:00+00:00,0.0
2024-07-24 14:00:00+00:00,0.0
2024-07-24 15:00:00+00:00,0.0
2024-07-24 16:00:00+00:00,0.0
2024-07-24 17:00:00+00:00,0.0
2024-07-24 18:00:00+00:00,0.0
2024-07-24 19:00:00+00:00,0.0
2024-07-25 13:00:00+00:00,0.0
2024-07-25 14:00:00+00:00,0.0
2024-07-25 15:00:00+00:00,0.0
2024-07-25 16:00:00+00:00,0.0
2024-07-25 17:00:00+00:00,0.0
2024-07-25 18:00:00+00:00,0.0
2024-07-25 19:00:00+00:00,0.0
2024-07-26 13:00:00+00:00,0.0
2024-07-26 14:00:00+00:00,0.0
2024-07-26 15:00:00+00:00,0.0
2024-07-26 16:00:00+00:00,0.0
2024-07-26 17:00:00+00:00,0.0
2024-07-26 18:00:00+00:00,0.0
2024-07-26 19:00:00+00:00,0.0
2024-07-29 13:00:00+00:00,0.0
2024-07-29 14:00:00+00:00,0.0
2024-07-29 15:00:00+00:00,0.0
2024-07-29 16:00:00+00:00,0.0
2024-07-29 18:00:00+00:00,0.0
2024-07-30 13:00:00+00:00,0.0
2024-07-30 14:00:00+00:00,0.0
2024-07-30 15:00:00+00:00,0.0
2024-07-30 16:00:00+00:00,0.0
2024-07-30 17:00:00+00:00,0.0
2024-07-30 18:00:00+00:00,0.0
2024-07-30 19:00:00+00:00,0.0
2024-07-31 13:00:00+00:00,0.0
2024-07-31 14:00:00+00:00,0.0
2024-07-31 16:00:00+00:00,0.0
2024-07-31 17:00:00+00:00,0.0
2024-07-31 18:00:00+00:00,0.0
2024-07-31 19:00:00+00:00,0.0
2024-08-01 13:00:00+00:00,0.0
2024-08-01 14:00:00+00:00,0.0
2024-08-01 15:00:00+00:00,0.0
2024-08-01 16:00:00+00:00,0.0
2024-08-01 17:00:00+00:00,0.0
2024-08-01 18:00:00+00:00,0.0
2024-08-01 19:00:00+00:00,0.0
2024-08-02 13:00:00+00:00,0.0
2024-08-02 14:00:00+00:00,0.0
2024-08-02 15:00:00+00:00,0.0
2024-08-02 16:00:00+00:00,0.0
2024-08-02 17:00:00+00:00,0.0
2024-08-02 19:00:00+00:00,0.0
2024-08-05 13:00:00+00:00,0.0
2024-08-05 14:00:00+00:00,0.0
2024-08-05 15:00:00+00:00,0.0
2024-08-05 16:00:00+00:00,0.0
2024-08-05 17:00:00+00:00,0.0
2024-08-05 18:00:00+00:00,0.0
2024-08-05 19:00:00+00:00,0.0
2024-08-06 13:00:00+00:00,0.0
2024-08-06 14:00:00+00:00,0.0
2024-08-06 15:00:00+00:00,0.0
2024-08-06 16:00:00+00:00,0.0
2024-08-06 17:00:00+00:00,0.0
2024-08-06 18:00:00+00:00,0.0
2024-08-06 19:00:00+00:00,0.0
2024-08-07 13:00:00+00:00,0.0
2024-08-07 14:00:00+00:00,0.0
2024-08-07 15:00:00+00:00,0.0
2024-08-07 16:00:00+00:00,0.0
2024-08-07 17:00:00+00:00,0.0
2024-08-07 19:00:00+00:00,0.0
2024-08-08 13:00:00+00:00,0.0
2024-08-08 14:00:00+00:00,0.0
2024-08-08 15:00:00+00:00,0.0
2024-08-08 16:00:00+00:00,0.0
2024-08-08 17:00:00+00:00,0.0
2024-08-08 18:00:00+00:00,0.0
2024-08-08 19:00:00+00:00,0.0
2024-08-09 13:00:00+00:00,0.0
2024-08-09 14:00:00+00:00,0.0
2024-08-09 15:00:00+00:00,0.0
2024-08-09 16:00:00+00:00,0.0
2024-08-09 17:00:00+00:00,0.0
2024-08-09 18:00:00+00:00,0.0
2024-08-12 14:00:00+00:00,0.0
2024-08-12 16:00:00+00:00,0.0
2024-08-12 17:00:00+00:00,0.0
2024-08-12 18:00:00+00:00,0.0
2024-08-12 19:00:00+00:00,0.0
2024-08-13 13:00:00+00:00,0.0
2024-08-13 16:00:00+00:00,0.0
2024-08-13 18:00:00+00:00,0.0
2024-08-13 19:00:00+00:00,0.0
2024-08-14 13:00:00+00:00,0.0
2024-08-14 14:00:00+00:00,0.0
2024-08-14 15:00:00+00:00,0.0
2024-08-14 18:00:00+00:00,0.0
2024-08-14 19:00:00+00:00,0.0
2024-08-15 13:00:00+00:00,0.0
2024-08-15 14:00:00+00:00,0.0
2024-08-15 16:00:00+00:00,0.0
2024-08-15 17:00:00+00:00,0.0
2024-08-15 18:00:00+00:00,0.0
2024-08-16 13:00:00+00:00,0.0
2024-08-16 14:00:00+00:00,0.0
2024-08-16 15:00:00+00:00,0.0
2024-08-16 17:00:00+00:00,0.0
2024-08-16 18:00:00+00:00,0.0
2024-08-16 19:00:00+00:00,0.0
2024-08-19 13:00:00+00:00,0.0
2024-08-19 14:00:00+00:00,0.0
2024-08-19 19:00:00+00:00,0.0
2024-08-20 13:00:00+00:00,0.0
2024-08-20 15:00:00+00:00,0.0
2024-08-20 17:00:00+00:00,0.0
2024-08-20 18:00:00+00:00,0.0
2024-08-21 13:00:00+00:00,0.0
2024-08-21 14:00:00+00:00,0.0
2024-08-21 15:00:00+00:00,0.0
2024-08-21 16:00:00+00:00,0.0
2024-08-21 17:00:00+00:00,0.0
2024-08-21 19:00:00+00:00,0.0
2024-08-22 13:00:00+00:00,0.0
2024-08-22 14:00:00+00:00,0.0
2024-08-22 15:00:00+00:00,0.0
2024-08-22 17:00:00+00:00,0.0
2024-08-22 19:00:00+00:00,0.0
2024-08-23 13:00:00+00:00,0.0
2024-08-23 14:00:00+00:00,0.0
2024-08-23 15:00:00+00:00,0.0
2024-08-23 16:00:00+00:00,0.0
2024-08-23 17:00:00+00:00,0.0
2024-08-23 18:00:00+00:00,0.0
2024-08-26 13:00:00+00:00,0.0
2024-08-26 14:00:00+00:00,0.0
2024-08-26 15:00:00+00:00,0.0
2024-08-26 18:00:00+00:00,0.0
2024-08-26 19:00:00+00:00,0.0
2024-08-27 13:00:00+00:00,0.0
2024-08-27 14:00:00+00:00,0.0
2024-08-27 16:00:00+00:00,0.0
2024-08-27 19:00:00+00:00,0.0
2024-08-28 16:00:00+00:00,0.0
2024-08-28 17:00:00+00:00,0.0
2024-08-28 19:00:00+00:00,0.0
2024-08-29 13:00:00+00:00,0.0
2024-08-29 14:00:00+00:00,0.0
2024-08-29 15:00:00+00:00,0.0
2024-08-29 16:00:00+00:00,0.0
2024-08-29 17:00:00+00:00,0.0
2024-08-29 19:00:00+00:00,0.0
2024-08-30 13:00:00+00:00,0.0
2024-08-30 14:00:00+00:00,0.0
2024-08-30 16:00:00+00:00,0.0
2024-08-30 19:00:00+00:00,0.0
2024-09-03 13:00:00+00:00,0.0
2024-09-03 14:00:00+00:00,0.0
2024-09-03 16:00:00+00:00,0.0
2024-09-03 17:00:00+00:00,0.0
2024-09-03 19:00:00+00:00,0.0
2024-09-04 13:00:00+00:00,0.0
2024-09-04 14:00:00+00:00,0.0
2024-09-04 19:00:00+00:00,0.0
2024-09-05 13:00:00+00:00,0.0
2024-09-05 14:00:00+00:00,0.0
2024-09-05 15:00:00+00:00,0.0
2024-09-05 16:00:00+00:00,0.0
2024-09-05 17:00:00+00:00,0.0
2024-09-05 19:00:00+00:00,0.0
2024-09-06 13:00:00+00:00,0.0
2024-09-06 14:00:00+00:00,0.0
2024-09-06 16:00:00+00:00,0.0
2024-09-06 18:00:00+00:00,0.0
2024-09-06 19:00:00+00:00,0.0
2024-09-09 13:00:00+00:00,0.0
2024-09-09 14:00:00+00:00,0.0
2024-09-09 15:00:00+00:00,0.0
2024-09-09 17:00:00+00:00,0.0
2024-09-09 18:00:00+00:00,0.0
2024-09-09 19:00:00+00:00,0.0
2024-09-10 13:00:00+00:00,0.0
2024-09-10 14:00:00+00:00,0.0
2024-09-10 15:00:00+00:00,0.0
2024-09-10 17:00:00+00:00,0.0
2024-09-10 18:00:00+00:00,0.0
2024-09-10 19:00:00+00:00,0.0
2024-09-11 13:00:00+00:00,0.0
2024-09-11 14:00:00+00:00,0.0
2024-09-11 15:00:00+00:00,0.0
2024-09-11 16:00:00+00:00,0.0
2024-09-11 19:00:00+00:00,0.0
2024-09-12 13:00:00+00:00,0.0
2024-09-12 14:00:00+00:00,0.0
2024-09-12 15:00:00+00:00,0.0
2024-09-12 16:00:00+00:00,0.0
2024-09-12 17:00:00+00:00,0.0
2024-09-12 18:00:00+00:00,0.0
2024-09-12 19:00:00+00:00,0.0
2024-09-13 13:00:00+00:00,0.0
2024-09-13 14:00:00+00:00,0.0
2024-09-13 15:00:00+00:00,0.0
2024-09-16 13:00:00+00:00,0.0
2024-09-16 14:00:00+00:00,0.0
2024-09-16 15:00:00+00:00,0.0
2024-09-16 16:00:00+00:00,0.0
2024-09-16 17:00:00+00:00,0.0
2024-09-16 18:00:00+00:00,0.0
2024-09-16 19:00:00+00:00,0.0
2024-09-17 13:00:00+00:00,0.0
2024-09-17 14:00:00+00:00,0.0
2024-09-17 16:00:00+00:00,0.0
2024-09-17 18:00:00+00:00,0.0
2024-09-17 19:00:00+00:00,0.0
2024-09-18 13:00:00+00:00,0.0
2024-09-18 14:00:00+00:00,0.0
2024-09-18 15:00:00+00:00,0.0
2024-09-18 17:00:00+00:00,0.0
2024-09-18 18:00:00+00:00,0.0
2024-09-18 19:00:00+00:00,0.0
2024-09-19 13:00:00+00:00,0.0
2024-09-19 14:00:00+00:00,0.0
2024-09-19 15:00:00+00:00,0.0
2024-09-19 17:00:00+00:00,0.0
2024-09-19 18:00:00+00:00,0.0
2024-09-20 13:00:00+00:00,0.0
2024-09-20 18:00:00+00:00,0.0
2024-09-20 19:00:00+00:00,0.0
2024-09-23 13:00:00+00:00,0.0
2024-09-23 14:00:00+00:00,0.0
2024-09-23 15:00:00+00:00,0.0
2024-09-23 16:00:00+00:00,0.0
2024-09-23 18:00:00+00:00,0.0
2024-09-23 19:00:00+00:00,0.0
2024-09-24 13:00:00+00:00,0.0
2024-09-24 14:00:00+00:00,0.0
2024-09-24 15:00:00+00:00,0.0
2024-09-24 18:00:00+00:00,0.0
2024-09-24 19:00:00+00:00,0.0
2024-09-25 13:00:00+00:00,0.0
2024-09-25 14:00:00+00:00,0.0
2024-09-25 16:00:00+00:00,0.0
2024-09-25 18:00:00+00:00,0.0
2024-09-26 13:00:00+00:00,0.0
2024-09-26 14:00:00+00:00,0.0
2024-09-26 15:00:00+00:00,0.0
2024-09-26 16:00:00+00:00,0.0
2024-09-26 17:00:00+00:00,0.0
2024-09-26 18:00:00+00:00,0.0
2024-09-26 19:00:00+00:00,0.0
2024-09-27 13:00:00+00:00,0.0
2024-09-27 14:00:00+00:00,0.0
2024-09-27 16:00:00+00:00,0.0
2024-09-27 17:00:00+00:00,0.0
2024-09-27 18:00:00+00:00,0.0
2024-09-27 19:00:00+00:00,0.0
2024-09-30 13:00:00+00:00,0.0
2024-09-30 14:00:00+00:00,0.0
2024-09-30 15:00:00+00:00,0.0
2024-09-30 16:00:00+00:00,0.0
2024-09-30 17:00:00+00:00,0.0
2024-09-30 19:00:00+00:00,0.0
2024-10-01 13:00:00+00:00,0.0
2024-10-01 14:00:00+00:00,0.0
2024-10-01 15:00:00+00:00,0.0
2024-10-01 16:00:00+00:00,0.0
2024-10-01 17:00:00+00:00,0.0
2024-10-01 19:00:00+00:00,0.0
2024-10-02 13:00:00+00:00,0.0
2024-10-02 14:00:00+00:00,0.0
2024-10-02 15:00:00+00:00,0.0
2024-10-02 16:00:00+00:00,0.0
2024-10-02 18:00:00+00:00,0.0
2024-10-02 19:00:00+00:00,0.0
2024-10-03 13:00:00+00:00,0.0
2024-10-03 19:00:00+00:00,0.0
2024-10-04 13:00:00+00:00,0.0
2024-10-04 15:00:00+00:00,0.0
2024-10-04 16:00:00+00:00,0.0
2024-10-04 17:00:00+00:00,0.0
2024-10-04 18:00:00+00:00,0.0
2024-10-04 19:00:00+00:00,0.0
2024-10-07 13:00:00+00:00,0.0
2024-10-07 14:00:00+00:00,0.0
2024-10-07 16:00:00+00:00,0.0
2024-10-07 18:00:00+00:00,0.0
2024-10-08 13:00:00+00:00,0.0
2024-10-08 14:00:00+00:00,0.0
2024-10-08 15:00:00+00:00,0.0
2024-10-08 16:00:00+00:00,0.0
2024-10-08 17:00:00+00:00,0.0
2024-10-09 13:00:00+00:00,0.0
2024-10-09 14:00:00+00:00,0.0
2024-10-09 16:00:00+00:00,0.0
2024-10-10 13:00:00+00:00,0.0
2024-10-10 14:00:00+00:00,0.0
2024-10-10 15:00:00+00:00,0.0
2024-10-10 16:00:00+00:00,0.0
2024-10-11 13:00:00+00:00,0.0
2024-10-11 17:00:00+00:00,0.0
2024-10-14 13:00:00+00:00,0.0
2024-10-14 14:00:00+00:00,0.0
2024-10-14 15:00:00+00:00,0.0
2024-10-14 18:00:00+00:00,0.0
2024-10-14 19:00:00+00:00,0.0
2024-10-15 13:00:00+00:00,0.0
2024-10-15 14:00:00+00:00,0.0
2024-10-15 16:00:00+00:00,0.0
2024-10-15 17:00:00+00:00,0.0
2024-10-15 18:00:00+00:00,0.0
2024-10-16 13:00:00+00:00,0.0
2024-10-16 14:00:00+00:00,0.0
2024-10-16 15:00:00+00:00,0.0
2024-10-16 17:00:00+00:00,0.0
2024-10-16 19:00:00+00:00,0.0
2024-10-17 14:00:00+00:00,0.0
2024-10-17 17:00:00+00:00,0.0
2024-10-17 19:00:00+00:00,0.0
2024-10-18 13:00:00+00:00,0.0
2024-10-18 14:00:00+00:00,0.0
2024-10-18 15:00:00+00:00,0.0
2024-10-18 16:00:00+00:00,0.0
2024-10-18 18:00:00+00:00,0.0
2024-10-18 19:00:00+00:00,0.0
2024-10-21 14:00:00+00:00,0.0
2024-10-21 15:00:00+00:00,0.0
2024-10-21 16:00:00+00:00,0.0
2024-10-21 17:00:00+00:00,0.0
2024-10-21 18:00:00+00:00,0.0
2024-10-21 19:00:00+00:00,0.0
2024-10-22 13:00:00+00:00,0.0
2024-10-22 14:00:00+00:00,0.0
2024-10-22 16:00:00+00:00,0.0
2024-10-22 17:00:00+00:00,0.0
2024-10-22 18:00:00+00:00,0.0
2024-10-22 19:00:00+00:00,0.0
2024-10-23 13:00:00+00:00,0.0
2024-10-23 14:00:00+00:00,0.0
2024-10-23 15:00:00+00:00,0.0
2024-10-23 16:00:00+00:00,0.0
2024-10-23 17:00:00+00:00,0.0
2024-10-23 18:00:00+00:00,0.0
2024-10-23 19:00:00+00:00,0.0
2024-10-24 13:00:00+00:00,0.0
2024-10-24 14:00:00+00:00,0.0
2024-10-24 15:00:00+00:00,0.0
2024-10-24 16:00:00+00:00,0.0
2024-10-24 17:00:00+00:00,0.0
2024-10-24 18:00:00+00:00,0.0
2024-10-25 13:00:00+00:00,0.0
2024-10-25 15:00:00+00:00,0.0
2024-10-25 16:00:00+00:00,0.0
2024-10-25 19:00:00+00:00,0.0
2024-10-28 13:00:00+00:00,0.0
2024-10-28 14:00:00+00:00,0.0
2024-10-28 15:00:00+00:00,0.0
2024-10-28 16:00:00+00:00,0.0
2024-10-28 17:00:00+00:00,0.0
2024-10-28 18:00:00+00:00,0.0
2024-10-28 19:00:00+00:00,0.0
2024-10-29 13:00:00+00:00,0.0
2024-10-29 14:00:00+00:00,0.0
2024-10-29 15:00:00+00:00,0.0
2024-10-29 16:00:00+00:00,0.0
2024-10-29 17:00:00+00:00,0.0
2024-10-29 18:00:00+00:00,0.0
2024-10-29 19:00:00+00:00,0.0
2024-10-30 13:00:00+00:00,0.0
2024-10-30 14:00:00+00:00,0.0
2024-10-30 15:00:00+00:00,0.0
2024-10-30 16:00:00+00:00,0.0
2024-10-30 17:00:00+00:00,0.0
2024-10-30 18:00:00+00:00,0.0
2024-10-30 19:00:00+00:00,0.0
2024-10-31 13:00:00+00:00,0.0
2024-10-31 15:00:00+00:00,0.0
2024-10-31 18:00:00+00:00,0.0
2024-10-31 19:00:00+00:00,0.0
2024-11-01 13:00:00+00:00,0.0
2024-11-01 15:00:00+00:00,0.0
2024-11-01 17:00:00+00:00,0.0
2024-11-01 18:00:00+00:00,0.0
2024-11-01 19:00:00+00:00,0.0
2024-11-04 14:00:00+00:00,0.0
2024-11-04 16:00:00+00:00,0.0
2024-11-04 18:00:00+00:00,0.0
2024-11-04 19:00:00+00:00,0.0
2024-11-04 20:00:00+00:00,0.0
2024-11-05 14:00:00+00:00,0.0
2024-11-05 15:00:00+00:00,0.0
2024-11-05 16:00:00+00:00,0.0
2024-11-05 18:00:00+00:00,0.0
2024-11-05 19:00:00+00:00,0.0
2024-11-05 20:00:00+00:00,0.0
2024-11-06 14:00:00+00:00,0.0
2024-11-06 15:00:00+00:00,0.0
2024-11-06 16:00:00+00:00,0.0
2024-11-06 17:00:00+00:00,0.0
2024-11-06 19:00:00+00:00,0.0
2024-11-06 20:00:00+00:00,0.0
2024-11-07 14:00:00+00:00,0.0
2024-11-07 15:00:00+00:00,0.0
2024-11-07 17:00:00+00:00,0.0
2024-11-07 18:00:00+00:00,0.0
2024-11-07 19:00:00+00:00,0.0
2024-11-08 14:00:00+00:00,0.0
2024-11-08 15:00:00+00:00,0.0
2024-11-08 16:00:00+00:00,0.0
2024-11-08 17:00:00+00:00,0.0
2024-11-08 18:00:00+00:00,0.0
2024-11-08 19:00:00+00:00,0.0
2024-11-08 20:00:00+00:00,0.0
2024-11-11 14:00:00+00:00,0.0
2024-11-11 15:00:00+00:00,0.0
2024-11-11 18:00:00+00:00,0.0
2024-11-11 19:00:00+00:00,0.0
2024-11-11 20:00:00+00:00,0.0
2024-11-12 14:00:00+00:00,0.0
2024-11-12 15:00:00+00:00,0.0
2024-11-12 16:00:00+00:00,0.0
2024-11-12 17:00:00+00:00,0.0
2024-11-12 18:00:00+00:00,0.0
2024-11-12 19:00:00+00:00,0.0
2024-11-12 20:00:00+00:00,0.0
2024-11-13 14:00:00+00:00,0.0
2024-11-13 15:00:00+00:00,0.0
2024-11-13 17:00:00+00:00,0.0
2024-11-13 18:00:00+00:00,0.0
2024-11-13 19:00:00+00:00,0.0
2024-11-13 20:00:00+00:00,0.0
2024-11-14 15:00:00+00:00,0.0
2024-11-14 16:00:00+00:00,0.0
2024-11-14 17:00:00+00:00,0.0
2024-11-14 18:00:00+00:00,0.0
2024-11-14 19:00:00+00:00,0.0
2024-11-14 20:00:00+00:00,0.0
2024-11-15 14:00:00+00:00,0.0
2024-11-15 15:00:00+00:00,0.0
2024-11-15 16:00:00+00:00,0.0
2024-11-15 17:00:00+00:00,0.0
2024-11-15 18:00:00+00:00,0.0
2024-11-15 19:00:00+00:00,0.0
2024-11-15 20:00:00+00:00,0.0
2024-11-18 14:00:00+00:00,0.0
2024-11-18 15:00:00+00:00,0.0
2024-11-18 17:00:00+00:00,0.0
2024-11-18 18:00:00+00:00,0.0
2024-11-18 19:00:00+00:00,0.0
2024-11-18 20:00:00+00:00,0.0
2024-11-19 14:00:00+00:00,0.0
2024-11-19 15:00:00+00:00,0.0
2024-11-19 16:00:00+00:00,0.0
2024-11-19 17:00:00+00:00,0.0
2024-11-19 18:00:00+00:00,0.0
2024-11-19 19:00:00+00:00,0.0
2024-11-19 20:00:00+00:00,0.0
2024-11-20 14:00:00+00:00,0.0
2024-11-20 15:00:00+00:00,0.0
2024-11-20 16:00:00+00:00,0.0
2024-11-20 17:00:00+00:00,0.0
2024-11-20 18:00:00+00:00,0.0
2024-11-20 19:00:00+00:00,0.0
2024-11-20 20:00:00+00:00,0.0
2024-11-21 14:00:00+00:00,0.0
2024-11-21 15:00:00+00:00,0.0
2024-11-21 16:00:00+00:00,0.0
2024-11-21 17:00:00+00:00,0.0
2024-11-21 18:00:00+00:00,0.0
2024-11-21 19:00:00+00:00,0.0
2024-11-21 20:00:00+00:00,0.0
2024-11-22 14:00:00+00:00,0.0
2024-11-22 15:00:00+00:00,0.0
2024-11-22 16:00:00+00:00,0.0
2024-11-22 18:00:00+00:00,0.0
2024-11-22 19:00:00+00:00,0.0
2024-11-25 14:00:00+00:00,0.0
2024-11-25 15:00:00+00:00,0.0
2024-11-25 16:00:00+00:00,0.0
2024-11-25 17:00:00+00:00,0.0
2024-11-25 18:00:00+00:00,0.0
2024-11-25 19:00:00+00:00,0.0
2024-11-25 20:00:00+00:00,0.0
2024-11-26 14:00:00+00:00,0.0
2024-11-26 15:00:00+00:00,0.0
2024-11-26 16:00:00+00:00,0.0
2024-11-26 17:00:00+00:00,0.0
2024-11-26 18:00:00+00:00,0.0
2024-11-26 19:00:00+00:00,0.0
2024-11-26 20:00:00+00:00,0.0
2024-11-27 14:00:00+00:00,0.0
2024-11-27 15:00:00+00:00,0.0
2024-11-27 16:00:00+00:00,0.0
2024-11-27 17:00:00+00:00,0.0
2024-11-27 18:00:00+00:00,0.0
2024-11-27 19:00:00+00:00,0.0
2024-11-27 20:00:00+00:00,0.0
2024-11-29 14:00:00+00:00,0.0
2024-11-29 15:00:00+00:00,0.0
2024-11-29 16:00:00+00:00,0.0
2024-12-02 14:00:00+00:00,0.0
2024-12-02 15:00:00+00:00,0.0
2024-12-02 17:00:00+00:00,0.0
2024-12-02 18:00:00+00:00,0.0
2024-12-02 19:00:00+00:00,0.0
2024-12-02 20:00:00+00:00,0.0
2024-12-03 14:00:00+00:00,0.0
2024-12-03 15:00:00+00:00,0.0
2024-12-03 16:00:00+00:00,0.0
2024-12-03 17:00:00+00:00,0.0
2024-12-03 18:00:00+00:00,0.0
2024-12-03 19:00:00+00:00,0.0
2024-12-03 20:00:00+00:00,0.0
2024-12-04 14:00:00+00:00,0.0
2024-12-04 15:00:00+00:00,0.0
2024-12-04 16:00:00+00:00,0.0
2024-12-04 17:00:00+00:00,0.0
2024-12-04 18:00:00+00:00,0.0
2024-12-04 19:00:00+00:00,0.0
2024-12-05 14:00:00+00:00,0.0
2024-12-05 15:00:00+00:00,0.0
2024-12-05 16:00:00+00:00,0.0
2024-12-05 17:00:00+00:00,0.0
2024-12-05 18:00:00+00:00,0.0
2024-12-05 19:00:00+00:00,0.0
2024-12-05 20:00:00+00:00,0.0
2024-12-06 14:00:00+00:00,0.0
2024-12-06 15:00:00+00:00,0.0
2024-12-06 16:00:00+00:00,0.0
2024-12-06 17:00:00+00:00,0.0
2024-12-06 18:00:00+00:00,0.0
2024-12-06 20:00:00+00:00,0.0
2024-12-09 14:00:00+00:00,0.0
2024-12-09 15:00:00+00:00,0.0
2024-12-09 16:00:00+00:00,0.0
2024-12-09 17:00:00+00:00,0.0
2024-12-09 19:00:00+00:00,0.0
2024-12-09 20:00:00+00:00,0.0
2024-12-10 14:00:00+00:00,0.0
2024-12-10 15:00:00+00:00,0.0
2024-12-10 16:00:00+00:00,0.0
2024-12-10 18:00:00+00:00,0.0
2024-12-10 19:00:00+00:00,0.0
2024-12-11 14:00:00+00:00,0.0
2024-12-11 15:00:00+00:00,0.0
2024-12-11 16:00:00+00:00,0.0
2024-12-11 17:00:00+00:00,0.0
2024-12-11 18:00:00+00:00,0.0
2024-12-11 19:00:00+00:00,0.0
2024-12-11 20:00:00+00:00,0.0
2024-12-12 14:00:00+00:00,0.0
2024-12-12 15:00:00+00:00,0.0
2024-12-12 16:00:00+00:00,0.0
2024-12-12 18:00:00+00:00,0.0
2024-12-12 19:00:00+00:00,0.0
2024-12-12 20:00:00+00:00,0.0
2024-12-13 16:00:00+00:00,0.0
2024-12-13 17:00:00+00:00,0.0
2024-12-13 19:00:00+00:00,0.0
2024-12-13 20:00:00+00:00,0.0
2024-12-16 14:00:00+00:00,0.0
2024-12-16 15:00:00+00:00,0.0
2024-12-16 16:00:00+00:00,0.0
2024-12-16 17:00:00+00:00,0.0
2024-12-16 18:00:00+00:00,0.0
2024-12-16 19:00:00+00:00,0.0
2024-12-16 20:00:00+00:00,0.0
2024-12-17 14:00:00+00:00,0.0
2024-12-17 15:00:00+00:00,0.0
2024-12-17 16:00:00+00:00,0.0
2024-12-17 17:00:00+00:00,0.0
2024-12-17 20:00:00+00:00,0.0
2024-12-18 14:00:00+00:00,0.0
2024-12-18 15:00:00+00:00,0.0
2024-12-18 16:00:00+00:00,0.0
2024-12-18 18:00:00+00:00,0.0
2024-12-18 19:00:00+00:00,0.0
2024-12-18 20:00:00+00:00,0.0
2024-12-19 14:00:00+00:00,0.0
2024-12-19 15:00:00+00:00,0.0
2024-12-19 16:00:00+00:00,0.0
2024-12-19 17:00:00+00:00,0.0
2024-12-19 18:00:00+00:00,0.0
2024-12-19 19:00:00+00:00,0.0
2024-12-19 20:00:00+00:00,0.0
2024-12-20 14:00:00+00:00,0.0
2024-12-20 15:00:00+00:00,0.0
2024-12-20 16:00:00+00:00,0.0
2024-12-20 17:00:00+00:00,0.0
2024-12-20 18:00:00+00:00,0.0
2024-12-20 19:00:00+00:00,0.0
2024-12-20 20:00:00+00:00,0.0
2024-12-23 14:00:00+00:00,0.0
2024-12-23 15:00:00+00:00,0.0
2024-12-23 16:00:00+00:00,0.0
2024-12-23 17:00:00+00:00,0.0
2024-12-23 18:00:00+00:00,0.0
2024-12-23 19:00:00+00:00,0.0
2024-12-23 20:00:00+00:00,0.0
2024-12-24 14:00:00+00:00,0.0
2024-12-24 15:00:00+00:00,0.0
2024-12-24 16:00:00+00:00,0.0
2024-12-26 14:00:00+00:00,0.0
2024-12-26 15:00:00+00:00,0.0
2024-12-26 16:00:00+00:00,0.0
2024-12-26 17:00:00+00:00,0.0
2024-12-26 18:00:00+00:00,0.0
2024-12-26 19:00:00+00:00,0.0
2024-12-26 20:00:00+00:00,0.0
2024-12-27 14:00:00+00:00,0.0
2024-12-27 15:00:00+00:00,0.0
2024-12-27 16:00:00+00:00,0.0
2024-12-27 17:00:00+00:00,0.0
2024-12-27 18:00:00+00:00,0.0
2024-12-27 19:00:00+00:00,0.0
2024-12-27 20:00:00+00:00,0.0
2024-12-30 14:00:00+00:00,0.0
2024-12-30 15:00:00+00:00,0.0
2024-12-30 16:00:00+00:00,0.0
2024-12-30 17:00:00+00:00,0.0
2024-12-30 18:00:00+00:00,0.0
2024-12-30 19:00:00+00:00,0.0
2024-12-30 20:00:00+00:00,0.0
2024-12-31 14:00:00+00:00,0.0
2024-12-31 15:00:00+00:00,0.0
2024-12-31 16:00:00+00:00,0.0
2024-12-31 17:00:00+00:00,0.0
2024-12-31 18:00:00+00:00,0.0
2024-12-31 19:00:00+00:00,0.0
2025-01-02 14:00:00+00:00,0.0
2025-01-02 15:00:00+00:00,0.0
2025-01-02 16:00:00+00:00,0.0
2025-01-02 17:00:00+00:00,0.0
2025-01-02 18:00:00+00:00,0.0
2025-01-02 19:00:00+00:00,0.0
2025-01-02 20:00:00+00:00,0.0
2025-01-03 14:00:00+00:00,0.0
2025-01-03 15:00:00+00:00,0.0
2025-01-03 16:00:00+00:00,0.0
2025-01-03 17:00:00+00:00,0.0
2025-01-03 18:00:00+00:00,0.0
2025-01-03 19:00:00+00:00,0.0
2025-01-03 20:00:00+00:00,0.0
2025-01-06 14:00:00+00:00,0.0
2025-01-06 15:00:00+00:00,0.0
2025-01-06 18:00:00+00:00,0.0
2025-01-06 19:00:00+00:00,0.0
2025-01-06 20:00:00+00:00,0.0
2025-01-07 14:00:00+00:00,0.0
2025-01-07 15:00:00+00:00,0.0
2025-01-07 16:00:00+00:00,0.0
2025-01-07 17:00:00+00:00,0.0
2025-01-07 18:00:00+00:00,0.0
2025-01-07 19:00:00+00:00,0.0
2025-01-07 20:00:00+00:00,0.0
2025-01-08 14:00:00+00:00,0.0
2025-01-08 15:00:00+00:00,0.0
2025-01-08 16:00:00+00:00,0.0
2025-01-08 17:00:00+00:00,0.0
2025-01-08 18:00:00+00:00,0.0
2025-01-08 19:00:00+00:00,0.0
2025-01-08 20:00:00+00:00,0.0
2025-01-10 14:00:00+00:00,0.0
2025-01-10 15:00:00+00:00,0.0
2025-01-10 16:00:00+00:00,0.0
2025-01-10 17:00:00+00:00,0.0
2025-01-10 19:00:00+00:00,0.0
2025-01-10 20:00:00+00:00,0.0
2025-01-13 14:00:00+00:00,0.0
2025-01-13 15:00:00+00:00,0.0
2025-01-13 16:00:00+00:00,0.0
2025-01-13 17:00:00+00:00,0.0
2025-01-13 18:00:00+00:00,0.0
2025-01-13 19:00:00+00:00,0.0
2025-01-13 20:00:00+00:00,0.0
2025-01-14 14:00:00+00:00,0.0
2025-01-14 15:00:00+00:00,0.0
2025-01-14 16:00:00+00:00,0.0
2025-01-14 17:00:00+00:00,0.0
2025-01-14 18:00:00+00:00,0.0
2025-01-14 19:00:00+00:00,0.0
2025-01-14 20:00:00+00:00,0.0
2025-01-15 14:00:00+00:00,0.0
2025-01-15 15:00:00+00:00,0.0
2025-01-15 16:00:00+00:00,0.0
2025-01-15 18:00:00+00:00,0.0
2025-01-15 19:00:00+00:00,0.0
2025-01-15 20:00:00+00:00,0.0
2025-01-16 14:00:00+00:00,0.0
2025-01-16 15:00:00+00:00,0.0
2025-01-16 16:00:00+00:00,0.0
2025-01-16 17:00:00+00:00,0.0
2025-01-16 19:00:00+00:00,0.0
2025-01-16 20:00:00+00:00,0.0
2025-01-17 14:00:00+00:00,0.0
2025-01-17 15:00:00+00:00,0.0
2025-01-17 16:00:00+00:00,0.0
2025-01-17 18:00:00+00:00,0.0
2025-01-17 19:00:00+00:00,0.0
2025-01-17 20:00:00+00:00,0.0
2025-01-21 14:00:00+00:00,0.0
2025-01-21 15:00:00+00:00,0.0
2025-01-21 16:00:00+00:00,0.0
2025-01-21 17:00:00+00:00,0.0
2025-01-21 19:00:00+00:00,0.0
2025-01-21 20:00:00+00:00,0.0
2025-01-22 14:00:00+00:00,0.0
2025-01-22 16:00:00+00:00,0.0
2025-01-22 17:00:00+00:00,0.0
2025-01-22 19:00:00+00:00,0.0
2025-01-22 20:00:00+00:00,0.0
2025-01-23 14:00:00+00:00,0.0
2025-01-23 15:00:00+00:00,0.0
2025-01-23 16:00:00+00:00,0.0
2025-01-23 17:00:00+00:00,0.0
2025-01-23 18:00:00+00:00,0.0
2025-01-23 19:00:00+00:00,0.0
2025-01-23 20:00:00+00:00,0.0
2025-01-24 14:00:00+00:00,0.0
2025-01-24 15:00:00+00:00,0.0
2025-01-24 16:00:00+00:00,0.0
2025-01-24 17:00:00+00:00,0.0
2025-01-24 18:00:00+00:00,0.0
2025-01-24 19:00:00+00:00,0.0
2025-01-24 20:00:00+00:00,0.0
2025-01-27 14:00:00+00:00,0.0
2025-01-27 15:00:00+00:00,0.0
2025-01-27 16:00:00+00:00,0.0
2025-01-27 17:00:00+00:00,0.0
2025-01-27 18:00:00+00:00,0.0
2025-01-27 19:00:00+00:00,0.0
2025-01-27 20:00:00+00:00,0.0
2025-01-28 14:00:00+00:00,0.0
2025-01-28 15:00:00+00:00,0.0
2025-01-28 16:00:00+00:00,0.0
2025-01-28 17:00:00+00:00,0.0
2025-01-28 18:00:00+00:00,0.0
2025-01-28 19:00:00+00:00,0.0
2025-01-29 14:00:00+00:00,0.0
2025-01-29 15:00:00+00:00,0.0
2025-01-29 16:00:00+00:00,0.0
2025-01-29 17:00:00+00:00,0.0
2025-01-29 18:00:00+00:00,0.0
2025-01-29 19:00:00+00:00,0.0
2025-01-29 20:00:00+00:00,0.0
2025-01-30 14:00:00+00:00,0.0
2025-01-30 15:00:00+00:00,0.0
2025-01-30 16:00:00+00:00,0.0
2025-01-30 18:00:00+00:00,0.0
2025-01-30 19:00:00+00:00,0.0
2025-01-30 20:00:00+00:00,0.0
2025-01-31 14:00:00+00:00,0.0
2025-01-31 15:00:00+00:00,0.0
2025-01-31 16:00:00+00:00,0.0
2025-01-31 17:00:00+00:00,0.0
2025-01-31 18:00:00+00:00,0.0
2025-01-31 19:00:00+00:00,0.0
2025-01-31 20:00:00+00:00,0.0
2025-02-03 14:00:00+00:00,0.0
2025-02-03 15:00:00+00:00,0.0
2025-02-03 16:00:00+00:00,0.0
2025-02-03 17:00:00+00:00,0.0
2025-02-03 18:00:00+00:00,0.0
2025-02-03 19:00:00+00:00,0.0
2025-02-03 20:00:00+00:00,0.0
2025-02-04 16:00:00+00:00,0.0
2025-02-04 18:00:00+00:00,0.0
2025-02-04 20:00:00+00:00,0.0
2025-02-05 14:00:00+00:00,0.0
2025-02-05 15:00:00+00:00,0.0
2025-02-05 16:00:00+00:00,0.0
2025-02-05 17:00:00+00:00,0.0
2025-02-05 19:00:00+00:00,0.0
2025-02-05 20:00:00+00:00,0.0
2025-02-06 14:00:00+00:00,0.0
2025-02-06 15:00:00+00:00,0.0
2025-02-06 17:00:00+00:00,0.0
2025-02-06 18:00:00+00:00,0.0
2025-02-06 19:00:00+00:00,0.0
2025-02-06 20:00:00+00:00,0.0
2025-02-07 14:00:00+00:00,0.0
2025-02-07 15:00:00+00:00,0.0
2025-02-07 16:00:00+00:00,0.0
2025-02-07 17:00:00+00:00,0.0
2025-02-07 19:00:00+00:00,0.0
2025-02-07 20:00:00+00:00,0.0
2025-02-10 14:00:00+00:00,0.0
2025-02-10 15:00:00+00:00,0.0
2025-02-10 19:00:00+00:00,0.0
2025-02-10 20:00:00+00:00,0.0
2025-02-11 14:00:00+00:00,0.0
2025-02-11 16:00:00+00:00,0.0
2025-02-11 17:00:00+00:00,0.0
2025-02-11 19:00:00+00:00,0.0
2025-02-11 20:00:00+00:00,0.0
2025-02-12 14:00:00+00:00,0.0
2025-02-12 15:00:00+00:00,0.0
2025-02-12 16:00:00+00:00,0.0
2025-02-12 17:00:00+00:00,0.0
2025-02-12 18:00:00+00:00,0.0
2025-02-12 19:00:00+00:00,0.0
2025-02-12 20:00:00+00:00,0.0
2025-02-13 14:00:00+00:00,0.0
2025-02-13 15:00:00+00:00,0.0
2025-02-13 16:00:00+00:00,0.0
2025-02-13 17:00:00+00:00,0.0
2025-02-13 18:00:00+00:00,0.0
2025-02-13 19:00:00+00:00,0.0
2025-02-13 20:00:00+00:00,0.0
2025-02-14 14:00:00+00:00,0.0
2025-02-14 15:00:00+00:00,0.0
2025-02-14 16:00:00+00:00,0.0
2025-02-14 17:00:00+00:00,0.0
2025-02-14 18:00:00+00:00,0.0
2025-02-14 19:00:00+00:00,0.0
2025-02-14 20:00:00+00:00,0.0
2025-02-18 14:00:00+00:00,0.0
2025-02-18 15:00:00+00:00,0.0
2025-02-18 16:00:00+00:00,0.0
2025-02-18 17:00:00+00:00,0.0
2025-02-18 18:00:00+00:00,0.0
2025-02-18 19:00:00+00:00,0.0
2025-02-18 20:00:00+00:00,0.0
2025-02-19 14:00:00+00:00,0.0
2025-02-19 15:00:00+00:00,0.0
2025-02-19 16:00:00+00:00,0.0
2025-02-19 17:00:00+00:00,0.0
2025-02-19 18:00:00+00:00,0.0
2025-02-19 19:00:00+00:00,0.0
2025-02-19 20:00:00+00:00,0.0
2025-02-20 14:00:00+00:00,0.0
2025-02-20 15:00:00+00:00,0.0
2025-02-20 16:00:00+00:00,0.0
2025-02-20 17:00:00+00:00,0.0
2025-02-20 18:00:00+00:00,0.0
2025-02-20 19:00:00+00:00,0.0
2025-02-21 14:00:00+00:00,0.0
2025-02-21 15:00:00+00:00,0.0
2025-02-21 16:00:00+00:00,0.0
2025-02-21 17:00:00+00:00,0.0
2025-02-21 18:00:00+00:00,0.0
2025-02-21 19:00:00+00:00,0.0
2025-02-21 20:00:00+00:00,0.0
2025-02-24 14:00:00+00:00,0.0
2025-02-24 15:00:00+00:00,0.0
2025-02-24 16:00:00+00:00,0.0
2025-02-24 17:00:00+00:00,0.0
2025-02-24 18:00:00+00:00,0.0
2025-02-24 19:00:00+00:00,0.0
2025-02-24 20:00:00+00:00,0.0
2025-02-25 14:00:00+00:00,0.0
2025-02-25 15:00:00+00:00,0.0
2025-02-25 16:00:00+00:00,0.0
2025-02-25 17:00:00+00:00,0.0
2025-02-25 18:00:00+00:00,0.0
2025-02-25 19:00:00+00:00,0.0
2025-02-25 20:00:00+00:00,0.0
2025-02-26 14:00:00+00:00,0.0
2025-02-26 15:00:00+00:00,0.0
2025-02-26 16:00:00+00:00,0.0
2025-02-26 17:00:00+00:00,0.0
2025-02-26 18:00:00+00:00,0.0
2025-02-26 19:00:00+00:00,0.0
2025-02-26 20:00:00+00:00,0.0
2025-02-27 14:00:00+00:00,0.0
2025-02-27 15:00:00+00:00,0.0
2025-02-27 16:00:00+00:00,0.0
2025-02-27 17:00:00+00:00,0.0
2025-02-27 18:00:00+00:00,0.0
2025-02-27 19:00:00+00:00,0.0
2025-02-27 20:00:00+00:00,0.0
2025-02-28 14:00:00+00:00,0.0
2025-02-28 15:00:00+00:00,0.0
2025-02-28 16:00:00+00:00,0.0
2025-02-28 17:00:00+00:00,0.0
2025-02-28 18:00:00+00:00,0.0
2025-02-28 19:00:00+00:00,0.0
2025-02-28 20:00:00+00:00,0.0
2025-03-03 14:00:00+00:00,0.0
2025-03-03 15:00:00+00:00,0.0
2025-03-03 16:00:00+00:00,0.0
2025-03-03 17:00:00+00:00,0.0
2025-03-03 18:00:00+00:00,0.0
2025-03-03 19:00:00+00:00,0.0
2025-03-03 20:00:00+00:00,0.0
2025-03-04 14:00:00+00:00,0.0
2025-03-04 15:00:00+00:00,0.0
2025-03-04 16:00:00+00:00,0.0
2025-03-04 17:00:00+00:00,0.0
2025-03-04 18:00:00+00:00,0.0
2025-03-04 19:00:00+00:00,0.0
2025-03-04 20:00:00+00:00,0.0
2025-03-05 14:00:00+00:00,0.0
2025-03-05 15:00:00+00:00,0.0
2025-03-05 16:00:00+00:00,0.0
2025-03-05 17:00:00+00:00,0.0
2025-03-05 18:00:00+00:00,0.0
2025-03-05 19:00:00+00:00,0.0
2025-03-05 20:00:00+00:00,0.0
2025-03-06 14:00:00+00:00,0.0
2025-03-06 15:00:00+00:00,0.0
2025-03-06 16:00:00+00:00,0.0
2025-03-06 17:00:00+00:00,0.0
2025-03-06 18:00:00+00:00,0.0
2025-03-06 19:00:00+00:00,0.0
2025-03-06 20:00:00+00:00,0.0
2025-03-07 14:00:00+00:00,0.0
2025-03-07 15:00:00+00:00,0.0
2025-03-07 17:00:00+00:00,0.0
2025-03-07 18:00:00+00:00,0.0
2025-03-07 19:00:00+00:00,0.0
2025-03-07 20:00:00+00:00,0.0
2025-03-10 13:00:00+00:00,0.0
2025-03-10 14:00:00+00:00,0.0
2025-03-10 15:00:00+00:00,0.0
2025-03-10 16:00:00+00:00,0.0
2025-03-10 17:00:00+00:00,0.0
2025-03-10 18:00:00+00:00,0.0
2025-03-10 19:00:00+00:00,0.0
2025-03-11 13:00:00+00:00,0.0
2025-03-11 14:00:00+00:00,0.0
2025-03-11 15:00:00+00:00,0.0
2025-03-11 16:00:00+00:00,0.0
2025-03-11 17:00:00+00:00,0.0
2025-03-11 18:00:00+00:00,0.0
2025-03-11 19:00:00+00:00,0.0
2025-03-12 13:00:00+00:00,0.0
2025-03-12 14:00:00+00:00,0.0
2025-03-12 15:00:00+00:00,0.0
2025-03-12 16:00:00+00:00,0.0
2025-03-12 17:00:00+00:00,0.0
2025-03-12 18:00:00+00:00,0.0
2025-03-12 19:00:00+00:00,0.0
2025-03-13 13:00:00+00:00,0.0
2025-03-13 14:00:00+00:00,0.0
2025-03-13 15:00:00+00:00,0.0
2025-03-13 17:00:00+00:00,0.0
2025-03-13 18:00:00+00:00,0.0
2025-03-13 19:00:00+00:00,0.0
2025-03-14 13:00:00+00:00,0.0
2025-03-14 14:00:00+00:00,0.0
2025-03-14 15:00:00+00:00,0.0
2025-03-14 16:00:00+00:00,0.0
2025-03-14 17:00:00+00:00,0.0
2025-03-14 18:00:00+00:00,0.0
2025-03-14 19:00:00+00:00,0.0
2025-03-17 13:00:00+00:00,0.0
2025-03-17 14:00:00+00:00,0.0
2025-03-17 15:00:00+00:00,0.0
2025-03-17 16:00:00+00:00,0.0
2025-03-17 17:00:00+00:00,0.0
2025-03-17 18:00:00+00:00,0.0
2025-03-17 19:00:00+00:00,0.0
2025-03-18 13:00:00+00:00,0.0
2025-03-18 14:00:00+00:00,0.0
2025-03-18 15:00:00+00:00,0.0
2025-03-18 16:00:00+00:00,0.0
2025-03-18 17:00:00+00:00,0.0
2025-03-18 18:00:00+00:00,0.0
2025-03-18 19:00:00+00:00,0.0
2025-03-19 13:00:00+00:00,0.0
2025-03-19 14:00:00+00:00,0.0
2025-03-19 15:00:00+00:00,0.0
2025-03-19 16:00:00+00:00,0.0
2025-03-19 17:00:00+00:00,0.0
2025-03-19 18:00:00+00:00,0.0
2025-03-19 19:00:00+00:00,0.0
2025-03-20 13:00:00+00:00,0.0
2025-03-20 14:00:00+00:00,0.0
2025-03-20 15:00:00+00:00,0.0
2025-03-20 16:00:00+00:00,0.0
2025-03-20 17:00:00+00:00,0.0
2025-03-20 18:00:00+00:00,0.0
2025-03-20 19:00:00+00:00,0.0
2025-03-21 13:00:00+00:00,0.0
2025-03-21 14:00:00+00:00,0.0
2025-03-21 15:00:00+00:00,0.0
2025-03-21 16:00:00+00:00,0.0
2025-03-21 17:00:00+00:00,0.0
2025-03-21 18:00:00+00:00,0.0
2025-03-21 19:00:00+00:00,0.0
2025-03-24 13:00:00+00:00,0.0
2025-03-24 14:00:00+00:00,0.0
2025-03-24 15:00:00+00:00,0.0
2025-03-24 16:00:00+00:00,0.0
2025-03-24 17:00:00+00:00,0.0
2025-03-24 18:00:00+00:00,0.0
2025-03-24 19:00:00+00:00,0.0
2025-03-25 13:00:00+00:00,0.0
2025-03-25 14:00:00+00:00,0.0
2025-03-25 15:00:00+00:00,0.0
2025-03-25 16:00:00+00:00,0.0
2025-03-25 17:00:00+00:00,0.0
2025-03-25 18:00:00+00:00,0.0
2025-03-25 19:00:00+00:00,0.0
2025-03-26 13:00:00+00:00,0.0
2025-03-26 14:00:00+00:00,0.0
2025-03-26 15:00:00+00:00,0.0
2025-03-26 16:00:00+00:00,0.0
2025-03-26 17:00:00+00:00,0.0
2025-03-26 18:00:00+00:00,0.0
2025-03-26 19:00:00+00:00,0.0
2025-03-27 13:00:00+00:00,0.0
2025-03-27 14:00:00+00:00,0.0
2025-03-27 15:00:00+00:00,0.0
2025-03-27 16:00:00+00:00,0.0
2025-03-27 17:00:00+00:00,0.0
2025-03-27 18:00:00+00:00,0.0
2025-03-27 19:00:00+00:00,0.0
2025-03-28 13:00:00+00:00,0.0
2025-03-28 14:00:00+00:00,0.0
2025-03-28 15:00:00+00:00,0.0
2025-03-28 16:00:00+00:00,0.0
2025-03-28 17:00:00+00:00,0.0
2025-03-28 18:00:00+00:00,0.0
2025-03-28 19:00:00+00:00,0.0
2025-03-31 13:00:00+00:00,0.0
2025-03-31 14:00:00+00:00,2.4745177253467965
2025-03-31 15:00:00+00:00,6.320902855683437
2025-03-31 16:00:00+00:00,2.0991962900581047
2025-03-31 17:00:00+00:00,13.841359939062633
2025-03-31 18:00:00+00:00,-9.65462348251736
2025-03-31 19:00:00+00:00,-25.093621407997375
2025-04-01 13:00:00+00:00,2.9614095484811926
2025-04-01 14:00:00+00:00,0.7265706056796617
2025-04-01 15:00:00+00:00,1.3912227102213013
2025-04-01 16:00:00+00:00,11.591277633748353
2025-04-01 17:00:00+00:00,11.22161738982541
2025-04-01 18:00:00+00:00,9.222999209773597
2025-04-01 19:00:00+00:00,8.151258057372196
2025-04-02 13:00:00+00:00,-6.285023300392549
2025-04-02 14:00:00+00:00,-11.91526989117164
2025-04-02 16:00:00+00:00,-34.40428775598103
2025-04-02 17:00:00+00:00,-44.0568720715637
2025-04-02 18:00:00+00:00,-50.75334523527246
2025-04-02 19:00:00+00:00,-52.61781783299472
2025-04-03 13:00:00+00:00,148.00240691857329
2025-04-03 14:00:00+00:00,152.77382933305117
2025-04-03 15:00:00+00:00,80.38880719765166
2025-04-03 16:00:00+00:00,80.26585948062991
2025-04-03 17:00:00+00:00,122.54571908219418
2025-04-03 18:00:00+00:00,112.98378739907422
2025-04-03 19:00:00+00:00,117.7462713664679
2025-04-04 13:00:00+00:00,283.728083553058
2025-04-04 14:00:00+00:00,195.09234160802032
2025-04-04 15:00:00+00:00,127.14600748942078
2025-04-04 16:00:00+00:00,92.72229695284895
2025-04-04 17:00:00+00:00,73.55001607013392
2025-04-04 18:00:00+00:00,36.75542938589183
2025-04-04 19:00:00+00:00,36.09009062609121
2025-04-07 13:00:00+00:00,-44.69044118029464
2025-04-07 14:00:00+00:00,-69.71643736810597
2025-04-07 15:00:00+00:00,-24.173132443898012
2025-04-07 16:00:00+00:00,-30.645264621233576
2025-04-07 17:00:00+00:00,-17.10785174931428
2025-04-07 18:00:00+00:00,-62.01963220563
2025-04-07 19:00:00+00:00,-41.519322340456085
2025-04-08 13:00:00+00:00,32.60429870675196
2025-04-08 14:00:00+00:00,27.960888790998126
2025-04-08 15:00:00+00:00,37.217756524064285
2025-04-08 16:00:00+00:00,54.35052276679444
2025-04-08 17:00:00+00:00,88.52813714568651
2025-04-08 18:00:00+00:00,110.60998892172127
2025-04-08 19:00:00+00:00,70.90471044350113
2025-04-09 13:00:00+00:00,-29.8237403292965
2025-04-09 14:00:00+00:00,-47.00195953839438
2025-04-09 15:00:00+00:00,-74.16172664071347
2025-04-09 16:00:00+00:00,-34.669263421085375
2025-04-09 17:00:00+00:00,-167.88171176512498
2025-04-09 18:00:00+00:00,-124.77985284281374
2025-04-09 19:00:00+00:00,-131.56241693778645
2025-04-10 13:00:00+00:00,-44.20960393753546
2025-04-10 14:00:00+00:00,-5.403375342539746
2025-04-10 15:00:00+00:00,-28.945474413479502
2025-04-10 16:00:00+00:00,-48.590264226405594
2025-04-10 17:00:00+00:00,-40.897745951519454
2025-04-10 18:00:00+00:00,-55.180025563198825
2025-04-10 19:00:00+00:00,-59.76578335961349
2025-04-11 13:00:00+00:00,-68.06812412674637
2025-04-11 14:00:00+00:00,-63.69697853366691
2025-04-11 15:00:00+00:00,-42.308038372335695
2025-04-11 16:00:00+00:00,-66.05558035283515
2025-04-11 17:00:00+00:00,-57.978120572978774
2025-04-11 18:00:00+00:00,-67.99017912102791
2025-04-11 19:00:00+00:00,-85.52369407739566
2025-04-14 13:00:00+00:00,-73.59492886248145
2025-04-14 14:00:00+00:00,-60.19668413846105
2025-04-14 15:00:00+00:00,-42.84002457221869
2025-04-14 16:00:00+00:00,-56.32886975046965
2025-04-14 17:00:00+00:00,-28.749144652852763
2025-04-14 18:00:00+00:00,-37.08729808823614
2025-04-14 19:00:00+00:00,-40.686994881757485
2025-04-15 13:00:00+00:00,33.72141671748602
2025-04-15 14:00:00+00:00,23.159113041442595
2025-04-15 15:00:00+00:00,30.314489992271124
2025-04-15 16:00:00+00:00,15.21901893120689
2025-04-15 17:00:00+00:00,51.57086077821991
2025-04-15 18:00:00+00:00,46.310842744622356
2025-04-15 19:00:00+00:00,26.586387944318155
2025-04-16 13:00:00+00:00,42.700522941150076
2025-04-16 14:00:00+00:00,0.8942404859314692
2025-04-16 15:00:00+00:00,27.808092827952272
2025-04-16 17:00:00+00:00,37.47790749474973
2025-04-16 18:00:00+00:00,14.883063205943508
2025-04-16 19:00:00+00:00,23.37322104679326
2025-04-17 13:00:00+00:00,20.308306722836292
2025-04-17 14:00:00+00:00,13.568830527548782
2025-04-17 15:00:00+00:00,44.52121506375368
2025-04-17 16:00:00+00:00,36.472573695001515
2025-04-17 17:00:00+00:00,26.296005771892414
2025-04-17 18:00:00+00:00,23.768343354555576
2025-04-17 19:00:00+00:00,18.882673392801532
2025-04-21 13:00:00+00:00,-35.68529291163745
2025-04-21 14:00:00+00:00,-70.49046952673763
2025-04-21 15:00:00+00:00,-84.82533745419343
2025-04-21 16:00:00+00:00,-129.50199873354572
2025-04-21 17:00:00+00:00,-132.7216177916951
2025-04-21 18:00:00+00:00,-130.176956503136
2025-04-21 19:00:00+00:00,-114.74965905227037
2025-04-22 13:00:00+00:00,-91.87652855028398
2025-04-22 14:00:00+00:00,-104.45516756283439
2025-04-22 15:00:00+00:00,-117.17300950877004
2025-04-22 16:00:00+00:00,-121.55404788952487
2025-04-22 17:00:00+00:00,-113.47104084032296
2025-04-22 18:00:00+00:00,-98.92678206522385
2025-04-22 19:00:00+00:00,-94.80223994085507
2025-04-23 13:00:00+00:00,-137.40130361304847
2025-04-23 14:00:00+00:00,-126.5219747664807
2025-04-23 15:00:00+00:00,-100.13800198204892
2025-04-23 16:00:00+00:00,-95.51509903992505
2025-04-23 17:00:00+00:00,-99.46433347846765
2025-04-23 18:00:00+00:00,-72.42386503661935
2025-04-23 19:00:00+00:00,-68.3393497840655
2025-04-24 13:00:00+00:00,-99.63522817060522
2025-04-24 14:00:00+00:00,-119.67023737931711
2025-04-24 16:00:00+00:00,-117.53849033461793
2025-04-24 17:00:00+00:00,-129.2111373850309
2025-04-24 18:00:00+00:00,-126.27056281945207
2025-04-24 19:00:00+00:00,-123.05631172888609
2025-04-25 13:00:00+00:00,-128.30738279163438
2025-04-25 14:00:00+00:00,-99.14465021952466
2025-04-25 15:00:00+00:00,-88.6424418017574
2025-04-25 16:00:00+00:00,-97.96326720289576
2025-04-25 17:00:00+00:00,-102.01837186520747
2025-04-25 18:00:00+00:00,-98.15607205669151
2025-04-25 19:00:00+00:00,-95.04942029157527
2025-04-28 13:00:00+00:00,-107.70297656016888
2025-04-28 14:00:00+00:00,-99.06774050731894
2025-04-28 15:00:00+00:00,-104.80438830848661
2025-04-28 16:00:00+00:00,-100.68440578969731
2025-04-28 17:00:00+00:00,-105.66681774977805
2025-04-28 18:00:00+00:00,-96.96401666572915
2025-04-28 19:00:00+00:00,-90.86065996522323
2025-04-29 13:00:00+00:00,-39.46148657631503
2025-04-29 14:00:00+00:00,-20.305776460969348
2025-04-29 15:00:00+00:00,-3.3028798532163925
2025-04-29 16:00:00+00:00,17.947976353259318
2025-04-29 17:00:00+00:00,50.54977748801322
2025-04-29 19:00:00+00:00,55.671290120631014
2025-04-30 13:00:00+00:00,-156.968441954998
2025-04-30 14:00:00+00:00,-79.79144305381368
2025-04-30 15:00:00+00:00,-92.81411746981067
2025-04-30 16:00:00+00:00,-96.51625014289326
2025-04-30 17:00:00+00:00,-81.93490796587314
2025-04-30 18:00:00+00:00,-57.83412773066145
2025-05-01 13:00:00+00:00,-74.9290427265255
2025-05-01 14:00:00+00:00,-40.18317938150151
2025-05-01 15:00:00+00:00,-30.038079860365666
2025-05-01 16:00:00+00:00,-27.601085372614435
2025-05-01 17:00:00+00:00,-1.4749940885803596
2025-05-01 18:00:00+00:00,-7.544845696373351
2025-05-01 19:00:00+00:00,-22.17890439088552
2025-05-02 13:00:00+00:00,12.178876786035929
2025-05-02 14:00:00+00:00,3.6826643648096944
2025-05-02 15:00:00+00:00,-31.378914708842508
2025-05-02 16:00:00+00:00,-40.99442718466064
2025-05-02 17:00:00+00:00,-47.73354268080814
2025-05-02 18:00:00+00:00,-30.33420599663952
2025-05-02 19:00:00+00:00,-30.612166296167146
2025-05-05 13:00:00+00:00,-50.88869466423401
2025-05-05 14:00:00+00:00,-57.48281681648363
2025-05-05 15:00:00+00:00,-41.24068734697536
2025-05-05 16:00:00+00:00,-42.47230241102703
2025-05-05 17:00:00+00:00,-19.780586904748446
2025-05-05 18:00:00+00:00,-25.973263807760002
2025-05-05 19:00:00+00:00,-25.330202869888254
2025-05-06 13:00:00+00:00,-62.539320277858415
2025-05-06 14:00:00+00:00,-35.70071320115264
2025-05-06 15:00:00+00:00,-37.39301923347399
2025-05-06 16:00:00+00:00,-12.858284508249081
2025-05-06 17:00:00+00:00,-12.418799886387017
2025-05-06 18:00:00+00:00,-11.67944461305304
2025-05-06 19:00:00+00:00,-13.543814949926517
2025-05-07 13:00:00+00:00,8.559595302908093
2025-05-07 15:00:00+00:00,53.238390693345266
2025-05-07 17:00:00+00:00,105.44534168509067
2025-05-07 18:00:00+00:00,106.2594676025769
2025-05-07 19:00:00+00:00,99.02738621455583
2025-05-08 13:00:00+00:00,69.47762986799877
2025-05-08 14:00:00+00:00,63.52319491360669
2025-05-08 15:00:00+00:00,52.184825708983425
2025-05-08 16:00:00+00:00,32.909254022410096
2025-05-08 17:00:00+00:00,31.44337477633738
2025-05-08 18:00:00+00:00,8.387048550003428
2025-05-08 19:00:00+00:00,3.1911955433512382
2025-05-09 13:00:00+00:00,-66.13816435833361
2025-05-09 14:00:00+00:00,-48.35338406682641
2025-05-09 15:00:00+00:00,-50.29267165974616
2025-05-09 16:00:00+00:00,-62.19390833720156
2025-05-09 17:00:00+00:00,-59.061760071142615
2025-05-09 18:00:00+00:00,-36.7609352763186
2025-05-09 19:00:00+00:00,-50.94634678357321
2025-05-12 13:00:00+00:00,-199.32105621175137
2025-05-12 14:00:00+00:00,-210.06018099116432
2025-05-12 15:00:00+00:00,-191.19830897241826
2025-05-12 16:00:00+00:00,-209.82999951166445
2025-05-12 17:00:00+00:00,-194.037798116961
2025-05-12 18:00:00+00:00,-198.69277928818417
2025-05-12 19:00:00+00:00,-202.131946151513
2025-05-13 13:00:00+00:00,-232.5961075702094
2025-05-13 14:00:00+00:00,-241.14635218196423
2025-05-13 15:00:00+00:00,-266.1039006671002
2025-05-13 17:00:00+00:00,-254.42559242532093
2025-05-13 18:00:00+00:00,-247.76172219448722
2025-05-13 19:00:00+00:00,-234.5190850003188
2025-05-14 13:00:00+00:00,-199.3180656827006
2025-05-14 14:00:00+00:00,-210.894022913022
2025-05-14 15:00:00+00:00,-199.38779636854068
2025-05-14 16:00:00+00:00,-200.06204803697278
2025-05-14 17:00:00+00:00,-185.7804714134016
2025-05-14 18:00:00+00:00,-198.12290705594634
2025-05-14 19:00:00+00:00,-195.50918639721488
2025-05-15 13:00:00+00:00,-113.9716560889058
2025-05-15 14:00:00+00:00,-107.89820480639786
2025-05-15 15:00:00+00:00,-130.42308197239927
2025-05-15 16:00:00+00:00,-117.40668991185572
2025-05-15 17:00:00+00:00,-119.05589435666768
2025-05-15 18:00:00+00:00,-118.69766473576297
2025-05-15 19:00:00+00:00,-124.94905457897039
2025-05-16 13:00:00+00:00,-99.81942439653511
2025-05-16 14:00:00+00:00,-94.45744201211336
2025-05-16 15:00:00+00:00,-96.57911696737678
2025-05-16 16:00:00+00:00,-96.14549905538233
2025-05-16 17:00:00+00:00,-112.35573169317263
2025-05-16 18:00:00+00:00,-115.17876406301593
2025-05-16 19:00:00+00:00,-92.89441343563308
2025-05-19 13:00:00+00:00,-43.12855879831071
2025-05-19 14:00:00+00:00,-41.35006740106654
2025-05-19 15:00:00+00:00,-55.760377288340536
2025-05-19 16:00:00+00:00,-70.28291567762165
2025-05-19 17:00:00+00:00,-68.53274848881998
2025-05-19 18:00:00+00:00,-62.070827867084375
2025-05-19 19:00:00+00:00,-49.55737732753865
2025-05-20 13:00:00+00:00,-60.73177748221796
2025-05-20 14:00:00+00:00,-50.489408235522646
2025-05-20 15:00:00+00:00,-49.315532254529856
2025-05-20 16:00:00+00:00,-26.683077764408363
2025-05-20 17:00:00+00:00,-15.074083596126808
2025-05-20 18:00:00+00:00,-11.281423774761146
2025-05-20 19:00:00+00:00,-7.0659031042783464
2025-05-21 13:00:00+00:00,32.8062435427361
2025-05-21 14:00:00+00:00,34.756147417228576
2025-05-21 15:00:00+00:00,26.61915826011295
2025-05-21 16:00:00+00:00,45.53520908127843
2025-05-21 17:00:00+00:00,47.57098979978465
2025-05-21 18:00:00+00:00,55.558227217298686
2025-05-21 19:00:00+00:00,63.368017065549985
2025-05-22 13:00:00+00:00,67.91163984055858
2025-05-22 14:00:00+00:00,67.41027549998498
2025-05-22 16:00:00+00:00,45.782044029984675
2025-05-22 17:00:00+00:00,52.54736247661303
2025-05-22 18:00:00+00:00,42.58347613760426
2025-05-22 19:00:00+00:00,33.402231761735834
2025-05-23 13:00:00+00:00,85.39465376396484
2025-05-23 14:00:00+00:00,95.0718024275082
2025-05-23 15:00:00+00:00,95.33952453734658
2025-05-23 16:00:00+00:00,109.47851775914366
2025-05-23 17:00:00+00:00,115.51332380206966
2025-05-23 18:00:00+00:00,109.44698302812547
2025-05-23 19:00:00+00:00,115.04198386235593
2025-05-27 13:00:00+00:00,80.87462297027864
2025-05-27 14:00:00+00:00,89.7987942077533
2025-05-27 15:00:00+00:00,86.98058770897316
2025-05-27 16:00:00+00:00,89.75541308428743
2025-05-27 17:00:00+00:00,103.47995222589331
2025-05-27 18:00:00+00:00,108.42990786499057
2025-05-27 19:00:00+00:00,125.2607401681889
2025-05-28 13:00:00+00:00,98.43951005458874
2025-05-28 14:00:00+00:00,94.8130529169378
2025-05-28 15:00:00+00:00,99.30230019502075
2025-05-28 16:00:00+00:00,105.47343601397591
2025-05-28 17:00:00+00:00,105.95558892976867
2025-05-28 18:00:00+00:00,116.06463052169417
2025-05-28 19:00:00+00:00,134.06919219399379
2025-05-29 13:00:00+00:00,146.5236923339089
2025-05-29 14:00:00+00:00,138.33337708742118
2025-05-29 15:00:00+00:00,121.41583471552383
2025-05-29 16:00:00+00:00,121.08879941129564
2025-05-29 17:00:00+00:00,133.9774748568521
2025-05-29 18:00:00+00:00,129.0386080248746
2025-05-29 19:00:00+00:00,136.24340226937008
2025-05-30 13:00:00+00:00,176.30817237280124
2025-05-30 14:00:00+00:00,170.93554101693545
2025-05-30 15:00:00+00:00,171.86812931856633
2025-05-30 16:00:00+00:00,183.3313027488517
2025-05-30 17:00:00+00:00,188.14189144992628
2025-05-30 18:00:00+00:00,200.32302358576578
2025-05-30 19:00:00+00:00,190.23078207493876
2025-06-02 13:00:00+00:00,188.12100428879603
2025-06-02 14:00:00+00:00,179.0189282536406
2025-06-02 15:00:00+00:00,187.53711202904063
2025-06-02 16:00:00+00:00,180.84012273030535
2025-06-02 17:00:00+00:00,197.52732844206344
2025-06-02 18:00:00+00:00,195.66290802257222
2025-06-02 19:00:00+00:00,196.25180755076855
2025-06-03 13:00:00+00:00,189.00451758572405
2025-06-03 14:00:00+00:00,167.27118045418626
2025-06-03 15:00:00+00:00,144.67552780337795
2025-06-03 16:00:00+00:00,162.37410533721706
2025-06-03 17:00:00+00:00,163.98390616991853
2025-06-03 18:00:00+00:00,162.62591276887497
2025-06-03 19:00:00+00:00,159.94206593967473
2025-06-04 13:00:00+00:00,166.8957567580513
2025-06-04 14:00:00+00:00,159.6610184886813
2025-06-04 15:00:00+00:00,164.41449574391632
2025-06-04 16:00:00+00:00,164.49451470205923
2025-06-04 17:00:00+00:00,172.8949400988542
2025-06-04 18:00:00+00:00,177.8548407038571
2025-06-04 19:00:00+00:00,172.91602605011
2025-06-05 13:00:00+00:00,165.55582097026632
2025-06-05 14:00:00+00:00,176.73020373220157
2025-06-05 15:00:00+00:00,166.61600825994304
2025-06-05 16:00:00+00:00,178.65319855505493
2025-06-05 17:00:00+00:00,187.59436866375
2025-06-05 18:00:00+00:00,198.47418983518455
2025-06-05 19:00:00+00:00,198.4798489309323
2025-06-06 13:00:00+00:00,166.58939243208698
2025-06-06 14:00:00+00:00,142.36027441780305
2025-06-06 15:00:00+00:00,132.54011552130896
2025-06-06 16:00:00+00:00,134.54963395212184
2025-06-06 17:00:00+00:00,145.32775803502156
2025-06-06 18:00:00+00:00,154.7344101975601
2025-06-06 19:00:00+00:00,146.80617535790935
2025-06-09 13:00:00+00:00,60.83314420820079
2025-06-09 14:00:00+00:00,83.7393079131778
2025-06-09 15:00:00+00:00,94.47972736110228
2025-06-09 16:00:00+00:00,84.32216815812309
2025-06-09 17:00:00+00:00,86.9578253855402
2025-06-09 18:00:00+00:00,94.38287353637395
2025-06-09 19:00:00+00:00,94.38290832186075
2025-06-10 13:00:00+00:00,70.1259436747877
2025-06-10 14:00:00+00:00,57.882114634240224
2025-06-10 15:00:00+00:00,83.90426613418371
2025-06-10 16:00:00+00:00,70.1279513349392
2025-06-10 17:00:00+00:00,74.5935997862007
2025-06-10 18:00:00+00:00,90.02122524633688
2025-06-10 19:00:00+00:00,99.80290352476423
2025-06-11 13:00:00+00:00,62.34783657100584
2025-06-11 14:00:00+00:00,99.79230673155176
2025-06-11 15:00:00+00:00,116.36693390653029
2025-06-11 16:00:00+00:00,109.50384119151913
2025-06-11 18:00:00+00:00,129.8508935655481
2025-06-11 19:00:00+00:00,149.9128097302804
2025-06-12 13:00:00+00:00,212.95309613264283
2025-06-12 14:00:00+00:00,230.11057726972473
2025-06-12 15:00:00+00:00,231.9596160932703
2025-06-12 17:00:00+00:00,251.0514381115226
2025-06-12 18:00:00+00:00,258.49807742902743
2025-06-12 19:00:00+00:00,256.59083327971894
2025-06-13 13:00:00+00:00,350.59100965348705
2025-06-13 14:00:00+00:00,328.9428279676794
2025-06-13 15:00:00+00:00,325.61148981417665
2025-06-13 16:00:00+00:00,329.28689692861724
2025-06-13 17:00:00+00:00,340.0126325032962
2025-06-13 18:00:00+00:00,342.3963704726508
2025-06-13 19:00:00+00:00,338.2339597086718
2025-06-16 13:00:00+00:00,296.3359077380806
2025-06-16 14:00:00+00:00,311.85914243704826
2025-06-16 15:00:00+00:00,309.8038098419971
2025-06-16 16:00:00+00:00,299.5771005701558
2025-06-16 17:00:00+00:00,291.3595524539944
2025-06-16 18:00:00+00:00,273.47826164415727
2025-06-16 19:00:00+00:00,270.5104326249242
2025-06-17 13:00:00+00:00,205.82039018463783
2025-06-17 14:00:00+00:00,208.79953739536586
2025-06-17 15:00:00+00:00,200.3882816297467
2025-06-17 16:00:00+00:00,214.18842883142557
2025-06-17 17:00:00+00:00,219.21404051759134
2025-06-17 18:00:00+00:00,226.981481257185
2025-06-17 19:00:00+00:00,220.21015831279487
2025-06-18 13:00:00+00:00,203.92490032752752
2025-06-18 15:00:00+00:00,207.09967318909753
2025-06-18 17:00:00+00:00,201.72826959576264
2025-06-18 18:00:00+00:00,191.2881404050621
2025-06-18 19:00:00+00:00,168.7624325273443
2025-06-20 13:00:00+00:00,153.66587727323838
2025-06-20 14:00:00+00:00,180.35396112944778
2025-06-20 15:00:00+00:00,159.32847792415475
2025-06-20 16:00:00+00:00,162.7433376707501
2025-06-20 18:00:00+00:00,160.82354871624895
2025-06-20 19:00:00+00:00,175.69350016423965
2025-06-23 13:00:00+00:00,171.28421966606635
2025-06-23 14:00:00+00:00,197.74194064539745
2025-06-23 16:00:00+00:00,173.9563333307815
2025-06-23 17:00:00+00:00,139.29689194974927
2025-06-23 19:00:00+00:00,132.8785757800744
2025-06-24 13:00:00+00:00,94.43638102312508
2025-06-24 14:00:00+00:00,69.82657360597034
2025-06-25 13:00:00+00:00,106.06119917089731
2025-06-25 14:00:00+00:00,92.40092831389
2025-06-25 15:00:00+00:00,99.12928091657206
2025-06-25 16:00:00+00:00,105.32786578806915
2025-06-25 17:00:00+00:00,113.63089735923178
2025-06-25 19:00:00+00:00,106.80057183697649
2025-06-26 13:00:00+00:00,9.674045086464801
2025-06-26 14:00:00+00:00,19.45004687640036
2025-06-26 19:00:00+00:00,14.275802429162741
2025-06-27 13:00:00+00:00,10.353776548882916
2025-06-27 14:00:00+00:00,25.599574135939786
2025-06-27 15:00:00+00:00,29.996957464990686
2025-06-27 16:00:00+00:00,33.60004329565223
2025-06-27 17:00:00+00:00,52.266805616503994
2025-06-27 18:00:00+00:00,75.21615165482379
2025-06-27 19:00:00+00:00,94.28618371628119
2025-06-30 13:00:00+00:00,100.63932880569538
2025-06-30 14:00:00+00:00,111.04282016171875
2025-06-30 15:00:00+00:00,131.0562882863711
2025-06-30 16:00:00+00:00,145.2516099740463
2025-06-30 17:00:00+00:00,151.89439634924054
2025-06-30 19:00:00+00:00,154.8515895985388
2025-07-01 13:00:00+00:00,181.93571595091603
2025-07-01 14:00:00+00:00,136.79136944614936
2025-07-01 15:00:00+00:00,66.08520444200929
2025-07-01 16:00:00+00:00,108.23904656782952
2025-07-01 17:00:00+00:00,127.14305360798164
2025-07-01 18:00:00+00:00,109.06326406311291
2025-07-01 19:00:00+00:00,115.7977503827042
2025-07-02 13:00:00+00:00,66.2087859209971
2025-07-02 14:00:00+00:00,-15.806519094904871
2025-07-02 15:00:00+00:00,9.108732459808106
2025-07-02 16:00:00+00:00,27.92170877561348
2025-07-02 17:00:00+00:00,26.052647758705582
2025-07-02 18:00:00+00:00,30.674925591513176
2025-07-02 19:00:00+00:00,22.810777639080264
2025-07-03 13:00:00+00:00,35.14312170382784
2025-07-03 14:00:00+00:00,58.19872653187935
2025-07-03 15:00:00+00:00,68.95489858686005
2025-07-07 13:00:00+00:00,99.08360965781446
2025-07-07 14:00:00+00:00,102.42679280220506
2025-07-07 15:00:00+00:00,101.43054578785762
2025-07-07 16:00:00+00:00,94.4877797719641
2025-07-07 17:00:00+00:00,109.27362518177765
2025-07-07 18:00:00+00:00,116.0122159741478
2025-07-07 19:00:00+00:00,136.39051847166365
2025-07-08 13:00:00+00:00,80.73700079876882
2025-07-08 14:00:00+00:00,28.46329230247465
2025-07-08 15:00:00+00:00,28.939469915719098
2025-07-08 16:00:00+00:00,22.121024169839746
2025-07-08 17:00:00+00:00,17.422987788805102
2025-07-08 18:00:00+00:00,4.838853685143672
2025-07-08 19:00:00+00:00,-9.15782265560712
2025-07-09 13:00:00+00:00,-43.30851268573341
2025-07-09 14:00:00+00:00,-54.81997015146129
2025-07-09 15:00:00+00:00,-54.18837611259404
2025-07-09 16:00:00+00:00,-44.31560552813779
2025-07-09 17:00:00+00:00,-54.01652799090718
2025-07-09 18:00:00+00:00,-55.80621255173422
2025-07-09 19:00:00+00:00,-54.99177601772148
2025-07-10 13:00:00+00:00,-174.52731906764245
2025-07-10 14:00:00+00:00,-173.17760231858853
2025-07-10 15:00:00+00:00,-155.46716240111567
2025-07-10 16:00:00+00:00,-148.4599814887332
2025-07-10 17:00:00+00:00,-130.38604982973473
2025-07-10 18:00:00+00:00,-113.32912312707194
2025-07-10 19:00:00+00:00,-122.72548492168967
2025-07-11 13:00:00+00:00,-53.72683452689388
2025-07-11 14:00:00+00:00,-30.53524088086812
2025-07-11 15:00:00+00:00,-33.96517383389871
2025-07-11 16:00:00+00:00,-21.67127319515228
2025-07-11 17:00:00+00:00,-32.74968753527664
2025-07-11 18:00:00+00:00,-38.706427333763784
2025-07-11 19:00:00+00:00,-47.28799399084555
2025-07-14 13:00:00+00:00,22.095415494111265
2025-07-14 14:00:00+00:00,4.851671042670432
2025-07-14 15:00:00+00:00,4.342825258105707
2025-07-14 16:00:00+00:00,22.186247428333196
2025-07-14 17:00:00+00:00,19.8667951363212
2025-07-14 19:00:00+00:00,19.92023305209614
2025-07-15 13:00:00+00:00,7.479149918782486
2025-07-15 14:00:00+00:00,9.892493401479442
2025-07-15 15:00:00+00:00,10.246977758248981
2025-07-15 16:00:00+00:00,16.94702850220109
2025-07-15 17:00:00+00:00,35.07600706693189
2025-07-15 19:00:00+00:00,27.699493919897023
2025-07-16 13:00:00+00:00,7.844694352963963
2025-07-16 14:00:00+00:00,30.003980707087834
2025-07-16 15:00:00+00:00,30.410051010612708
2025-07-16 16:00:00+00:00,24.463925398080928
2025-07-16 17:00:00+00:00,14.129674809608382
2025-07-16 19:00:00+00:00,41.42309548035335
2025-07-17 13:00:00+00:00,53.30516816389894
2025-07-17 15:00:00+00:00,29.53623171123339
2025-07-17 16:00:00+00:00,33.152057270184905
2025-07-17 17:00:00+00:00,37.19070515779647
2025-07-18 13:00:00+00:00,119.13684271209337
2025-07-18 17:00:00+00:00,113.35114886112457
2025-07-18 19:00:00+00:00,106.53174814135231
2025-07-21 13:00:00+00:00,68.90367930188921
2025-07-21 14:00:00+00:00,91.70654914884763
2025-07-21 16:00:00+00:00,101.2812860621627
2025-07-21 19:00:00+00:00,92.26101718373083
2025-07-22 13:00:00+00:00,114.37963601359016
2025-07-22 14:00:00+00:00,119.79579510481217
2025-07-22 15:00:00+00:00,118.84747352238102
2025-07-22 18:00:00+00:00,111.61503143521995
2025-07-22 19:00:00+00:00,111.46951338754528
2025-07-23 13:00:00+00:00,80.30323627488227
2025-07-23 14:00:00+00:00,67.34519084262693
2025-07-23 15:00:00+00:00,39.56836905841315
2025-07-23 16:00:00+00:00,29.331822912099415
2025-07-23 17:00:00+00:00,9.023810589687937
2025-07-23 18:00:00+00:00,4.7062996068878515
2025-07-23 19:00:00+00:00,15.044801280030201
2025-07-24 13:00:00+00:00,14.49836268689297
2025-07-24 14:00:00+00:00,56.464372441872115
2025-07-24 15:00:00+00:00,100.11341457893343
2025-07-24 16:00:00+00:00,76.77862283765653
2025-07-24 19:00:00+00:00,110.96665470799884
2025-07-25 13:00:00+00:00,117.39486366534719
2025-07-25 14:00:00+00:00,112.31651806894416
2025-07-25 15:00:00+00:00,106.57916416661901
2025-07-25 16:00:00+00:00,107.22719549182679
2025-07-25 17:00:00+00:00,101.19522782076936
2025-07-25 18:00:00+00:00,114.26589514404196
2025-07-28 13:00:00+00:00,132.4694475652787
2025-07-28 14:00:00+00:00,138.15332876634025
2025-07-28 15:00:00+00:00,124.52457664916565
2025-07-28 16:00:00+00:00,152.93865156799444
2025-07-28 17:00:00+00:00,137.45684940105625
2025-07-28 18:00:00+00:00,149.74067585475015
2025-07-28 19:00:00+00:00,157.90439266612412
2025-07-29 13:00:00+00:00,-15.662077173148248
2025-07-29 14:00:00+00:00,-26.19996987472201
2025-07-29 15:00:00+00:00,-59.112480853768844
2025-07-29 16:00:00+00:00,-17.409143684761773
2025-07-29 17:00:00+00:00,-46.25589893443602
2025-07-29 18:00:00+00:00,-35.13513548565531
2025-07-29 19:00:00+00:00,-9.58253636266911
2025-07-30 13:00:00+00:00,281.053489709092
2025-07-30 14:00:00+00:00,320.47024588006013
2025-07-30 15:00:00+00:00,325.0237440499982
2025-07-30 16:00:00+00:00,278.6968247960109
2025-07-30 17:00:00+00:00,312.93818275572414
2025-07-30 18:00:00+00:00,313.47474595393066
2025-07-30 19:00:00+00:00,315.87421720408673
2025-07-31 13:00:00+00:00,333.830554489114
2025-07-31 16:00:00+00:00,364.2862749028016
2025-07-31 17:00:00+00:00,345.3240239125595
2025-07-31 18:00:00+00:00,353.4162278021559
2025-07-31 19:00:00+00:00,319.1965131873459
2025-08-01 13:00:00+00:00,366.32799358041706
2025-08-01 14:00:00+00:00,347.48241433173615
2025-08-01 15:00:00+00:00,351.98142517834685
2025-08-01 16:00:00+00:00,353.2997871922036
2025-08-01 17:00:00+00:00,341.4228336035018
2025-08-04 13:00:00+00:00,373.00101571227793
2025-08-04 14:00:00+00:00,361.7922084564245
2025-08-04 15:00:00+00:00,370.16192205236695
2025-08-04 17:00:00+00:00,386.6739100204935
2025-08-04 18:00:00+00:00,385.38099198516176
2025-08-04 19:00:00+00:00,391.34353749128945
2025-08-05 13:00:00+00:00,400.1710536941589
2025-08-05 14:00:00+00:00,383.07159648546013
2025-08-05 16:00:00+00:00,377.2749119960023
2025-08-05 17:00:00+00:00,383.85928797246993
2025-08-05 19:00:00+00:00,401.25299615514234
2025-08-06 13:00:00+00:00,451.8441350880462
2025-08-06 15:00:00+00:00,468.413016203558
2025-08-06 19:00:00+00:00,462.95332937697685
2025-08-07 13:00:00+00:00,452.3411781371503
2025-08-07 14:00:00+00:00,456.3214851970097
2025-08-07 15:00:00+00:00,436.4146344656092
2025-08-07 16:00:00+00:00,452.05757613461947
2025-08-07 17:00:00+00:00,443.2738940923985
2025-08-07 18:00:00+00:00,450.9913495616917
2025-08-07 19:00:00+00:00,473.2172723976003
2025-08-08 13:00:00+00:00,524.4775882551379
2025-08-08 14:00:00+00:00,521.4605724048002
2025-08-08 16:00:00+00:00,515.2784422123865
2025-08-08 17:00:00+00:00,506.12900980013194
2025-08-08 18:00:00+00:00,478.1147135880319
2025-08-08 19:00:00+00:00,508.7326562738115
2025-08-11 13:00:00+00:00,518.8468343533248
2025-08-11 14:00:00+00:00,504.650627262734
2025-08-11 15:00:00+00:00,519.3123164071677
2025-08-11 18:00:00+00:00,508.80773753448966
2025-08-11 19:00:00+00:00,538.292255325428
2025-08-12 13:00:00+00:00,385.3406212186307
2025-08-12 14:00:00+00:00,416.81789720813254
2025-08-12 15:00:00+00:00,438.4057162919962
2025-08-12 16:00:00+00:00,504.24740911204265
2025-08-12 17:00:00+00:00,489.31794567953733
2025-08-12 18:00:00+00:00,514.1901747143077
2025-08-13 13:00:00+00:00,519.3583798782943
2025-08-13 14:00:00+00:00,474.4557360258815
2025-08-13 15:00:00+00:00,491.2338170260987
2025-08-13 16:00:00+00:00,490.66598605641525
2025-08-13 18:00:00+00:00,472.8429068551822
2025-08-13 19:00:00+00:00,479.2117678326532
2025-08-14 13:00:00+00:00,494.7589920482078
2025-08-14 14:00:00+00:00,494.59289745592747
2025-08-14 15:00:00+00:00,500.0198695232302
2025-08-14 16:00:00+00:00,473.07930901531205
2025-08-14 18:00:00+00:00,479.09955291777453
2025-08-15 13:00:00+00:00,432.3286389470642
2025-08-15 14:00:00+00:00,462.1133003833367
2025-08-15 16:00:00+00:00,483.487392666785
2025-08-15 17:00:00+00:00,485.73174630537477
2025-08-15 18:00:00+00:00,471.4237853339407
2025-08-18 13:00:00+00:00,537.6408322791448
2025-08-18 14:00:00+00:00,543.688404011855
2025-08-18 15:00:00+00:00,523.3428162736163
2025-08-18 16:00:00+00:00,524.639224326044
2025-08-18 18:00:00+00:00,524.7410506337256
2025-08-18 19:00:00+00:00,506.3829421858061
2025-08-19 13:00:00+00:00,504.78472731737793
2025-08-19 14:00:00+00:00,495.2229749360171
2025-08-19 15:00:00+00:00,485.37192667089323
2025-08-19 17:00:00+00:00,487.0440168577496
2025-08-19 18:00:00+00:00,499.50384808414077
2025-08-19 19:00:00+00:00,511.7387983232566
2025-08-20 13:00:00+00:00,554.5833662849543
2025-08-20 15:00:00+00:00,562.0937164934103
2025-08-20 16:00:00+00:00,572.0198808047022
2025-08-20 17:00:00+00:00,555.5159024083518
2025-08-21 13:00:00+00:00,572.0850518849628
2025-08-21 14:00:00+00:00,556.0892500531268
2025-08-21 18:00:00+00:00,551.594995506603
2025-08-21 19:00:00+00:00,549.816305319234
2025-08-22 13:00:00+00:00,472.49274643276124
2025-08-22 14:00:00+00:00,453.21253465002155
2025-08-22 15:00:00+00:00,472.98497353360824
2025-08-22 16:00:00+00:00,469.4176481929651
2025-08-22 18:00:00+00:00,451.3331023480131
2025-08-22 19:00:00+00:00,457.17208376789387
2025-08-25 13:00:00+00:00,458.6733752406182
2025-08-25 14:00:00+00:00,422.2577898127846
2025-08-25 15:00:00+00:00,426.328894021379
2025-08-25 17:00:00+00:00,421.3150154996978
2025-08-26 13:00:00+00:00,403.2777390681204
2025-08-26 14:00:00+00:00,385.1554538027044
2025-08-26 18:00:00+00:00,414.60243096330413
2025-08-26 19:00:00+00:00,421.48603039669877
2025-08-27 13:00:00+00:00,421.3199879826512
2025-08-27 14:00:00+00:00,450.9864802585615
2025-08-27 15:00:00+00:00,458.3203510731576
2025-08-27 16:00:00+00:00,459.6487872720681
2025-08-27 17:00:00+00:00,475.89127744071754
2025-08-27 18:00:00+00:00,466.14111790212405
2025-08-27 19:00:00+00:00,466.5805936999893
2025-08-28 14:00:00+00:00,454.1374507282938
2025-08-28 18:00:00+00:00,461.4707641492424
2025-08-28 19:00:00+00:00,473.4380096712634
2025-08-29 15:00:00+00:00,451.94655239822134
2025-08-29 16:00:00+00:00,442.81290544500166
2025-08-29 19:00:00+00:00,424.06900589211153
2025-09-02 13:00:00+00:00,468.5701121572455
2025-09-02 14:00:00+00:00,498.1353703046097
2025-09-02 15:00:00+00:00,467.365421441959
2025-09-02 18:00:00+00:00,452.98134719503776
2025-09-02 19:00:00+00:00,445.02653131301787
2025-09-03 13:00:00+00:00,434.10428399201226
2025-09-03 15:00:00+00:00,434.6991880179709
2025-09-03 16:00:00+00:00,428.9239828687802
2025-09-03 17:00:00+00:00,404.25008856440587
2025-09-04 13:00:00+00:00,442.7341868627675
2025-09-04 14:00:00+00:00,441.10527900925337
2025-09-04 18:00:00+00:00,441.90891995993115
2025-09-05 13:00:00+00:00,416.2861598809869
2025-09-05 14:00:00+00:00,428.53686053840283
2025-09-05 15:00:00+00:00,406.88569361359146
2025-09-05 16:00:00+00:00,420.2775905334536
2025-09-05 17:00:00+00:00,423.24010166771853
2025-09-05 18:00:00+00:00,427.2948456308897
2025-09-08 13:00:00+00:00,452.9448559722523
2025-09-08 14:00:00+00:00,428.62364043332343
2025-09-08 15:00:00+00:00,428.7362449315967
2025-09-08 18:00:00+00:00,390.3375953027494
2025-09-08 19:00:00+00:00,374.9998815884285
2025-09-09 13:00:00+00:00,374.9998815884285
2025-09-09 14:00:00+00:00,374.9998815884285
2025-09-09 15:00:00+00:00,374.9998815884285
2025-09-09 17:00:00+00:00,374.9998815884285
2025-09-09 18:00:00+00:00,374.9998815884285
2025-09-09 19:00:00+00:00,374.9998815884285
2025-09-10 13:00:00+00:00,374.9998815884285
2025-09-10 14:00:00+00:00,374.9998815884285
2025-09-10 15:00:00+00:00,374.9998815884285
2025-09-10 17:00:00+00:00,374.9998815884285
2025-09-11 13:00:00+00:00,374.9998815884285
2025-09-11 14:00:00+00:00,374.9998815884285
2025-09-11 18:00:00+00:00,374.9998815884285
2025-09-11 19:00:00+00:00,374.9998815884285
2025-09-12 13:00:00+00:00,374.9998815884285
2025-09-12 14:00:00+00:00,374.9998815884285
2025-09-12 15:00:00+00:00,374.9998815884285
2025-09-12 16:00:00+00:00,374.9998815884285
2025-09-12 17:00:00+00:00,374.9998815884285
2025-09-12 18:00:00+00:00,374.9998815884285
2025-09-12 19:00:00+00:00,374.9998815884285
2025-09-15 13:00:00+00:00,374.9998815884285
2025-09-15 14:00:00+00:00,374.9998815884285
2025-09-15 17:00:00+00:00,374.9998815884285
2025-09-15 18:00:00+00:00,374.9998815884285
2025-09-15 19:00:00+00:00,374.9998815884285
2025-09-16 13:00:00+00:00,374.9998815884285
2025-09-16 18:00:00+00:00,374.9998815884285
2025-09-17 13:00:00+00:00,374.9998815884285
2025-09-17 16:00:00+00:00,374.9998815884285
2025-09-17 17:00:00+00:00,374.9998815884285
2025-09-17 18:00:00+00:00,374.9998815884285
2025-09-17 19:00:00+00:00,374.9998815884285
2025-09-18 13:00:00+00:00,374.9998815884285
2025-09-18 14:00:00+00:00,374.9998815884285
2025-09-18 16:00:00+00:00,374.9998815884285
2025-09-18 18:00:00+00:00,374.9998815884285
2025-09-19 13:00:00+00:00,374.9998815884285
2025-09-19 15:00:00+00:00,374.9998815884285
2025-09-19 17:00:00+00:00,374.9998815884285
2025-09-19 19:00:00+00:00,374.9998815884285
2025-09-22 13:00:00+00:00,374.9998815884285
2025-09-22 14:00:00+00:00,374.9998815884285
2025-09-22 15:00:00+00:00,374.9998815884285
2025-09-22 18:00:00+00:00,374.9998815884285
2025-09-22 19:00:00+00:00,374.9998815884285
2025-09-23 13:00:00+00:00,374.9998815884285
2025-09-23 14:00:00+00:00,374.9998815884285
2025-09-23 15:00:00+00:00,374.9998815884285
2025-09-23 19:00:00+00:00,374.9998815884285
2025-09-24 15:00:00+00:00,374.9998815884285
2025-09-24 17:00:00+00:00,374.9998815884285
2025-09-24 18:00:00+00:00,374.9998815884285
2025-09-24 19:00:00+00:00,374.9998815884285
2025-09-25 13:00:00+00:00,374.9998815884285
2025-09-25 15:00:00+00:00,374.9998815884285
2025-09-25 17:00:00+00:00,374.9998815884285
2025-09-25 18:00:00+00:00,374.9998815884285
2025-09-26 13:00:00+00:00,374.9998815884285
2025-09-26 14:00:00+00:00,374.9998815884285
2025-09-26 17:00:00+00:00,374.9998815884285
2025-09-26 18:00:00+00:00,374.9998815884285
2025-09-26 19:00:00+00:00,374.9998815884285
2025-09-29 13:00:00+00:00,374.9998815884285
2025-09-29 14:00:00+00:00,374.9998815884285
2025-09-29 16:00:00+00:00,374.9998815884285
2025-09-29 17:00:00+00:00,374.9998815884285
2025-09-29 18:00:00+00:00,374.9998815884285
2025-09-29 19:00:00+00:00,374.9998815884285
2025-09-30 13:00:00+00:00,374.9998815884285
2025-09-30 14:00:00+00:00,374.9998815884285
2025-09-30 15:00:00+00:00,374.9998815884285
2025-09-30 16:00:00+00:00,374.9998815884285
2025-09-30 18:00:00+00:00,374.9998815884285
2025-09-30 19:00:00+00:00,374.9998815884285
2025-10-01 13:00:00+00:00,374.9998815884285
2025-10-01 14:00:00+00:00,374.9998815884285
2025-10-01 16:00:00+00:00,374.9998815884285
2025-10-01 19:00:00+00:00,374.9998815884285
2025-10-02 13:00:00+00:00,374.9998815884285
2025-10-02 14:00:00+00:00,374.9998815884285
2025-10-02 15:00:00+00:00,374.9998815884285
2025-10-02 16:00:00+00:00,374.9998815884285
2025-10-02 17:00:00+00:00,374.9998815884285
2025-10-02 18:00:00+00:00,374.9998815884285
2025-10-02 19:00:00+00:00,374.9998815884285
2025-10-03 13:00:00+00:00,374.9998815884285
2025-10-03 14:00:00+00:00,374.9998815884285
2025-10-03 15:00:00+00:00,374.9998815884285
2025-10-03 16:00:00+00:00,374.9998815884285
2025-10-03 17:00:00+00:00,374.9998815884285
2025-10-03 19:00:00+00:00,374.9998815884285
2025-10-06 13:00:00+00:00,374.9998815884285
2025-10-06 14:00:00+00:00,374.9998815884285
2025-10-06 15:00:00+00:00,374.9998815884285
2025-10-06 16:00:00+00:00,374.9998815884285
2025-10-06 17:00:00+00:00,374.9998815884285
2025-10-06 18:00:00+00:00,374.9998815884285
2025-10-06 19:00:00+00:00,374.9998815884285
2025-10-07 13:00:00+00:00,374.9998815884285
2025-10-07 14:00:00+00:00,374.9998815884285
2025-10-07 15:00:00+00:00,374.9998815884285
2025-10-07 16:00:00+00:00,374.9998815884285
2025-10-07 17:00:00+00:00,374.9998815884285
2025-10-07 18:00:00+00:00,374.9998815884285
2025-10-07 19:00:00+00:00,374.9998815884285
2025-10-08 13:00:00+00:00,374.9998815884285
2025-10-08 14:00:00+00:00,374.9998815884285
2025-10-08 15:00:00+00:00,374.9998815884285
2025-10-08 18:00:00+00:00,374.9998815884285
2025-10-08 19:00:00+00:00,374.9998815884285
2025-10-09 13:00:00+00:00,374.9998815884285
2025-10-09 14:00:00+00:00,374.9998815884285
2025-10-09 15:00:00+00:00,374.9998815884285
2025-10-09 18:00:00+00:00,374.9998815884285
2025-10-10 13:00:00+00:00,374.9998815884285
2025-10-10 14:00:00+00:00,374.9998815884285
2025-10-10 15:00:00+00:00,374.9998815884285
2025-10-10 16:00:00+00:00,374.9998815884285
2025-10-10 18:00:00+00:00,374.9998815884285
2025-10-13 13:00:00+00:00,374.9998815884285
2025-10-13 14:00:00+00:00,374.9998815884285
2025-10-13 15:00:00+00:00,374.9998815884285
2025-10-13 16:00:00+00:00,374.9998815884285
2025-10-13 18:00:00+00:00,374.9998815884285
2025-10-13 19:00:00+00:00,374.9998815884285
2025-10-14 13:00:00+00:00,374.9998815884285
2025-10-14 14:00:00+00:00,374.9998815884285
2025-10-14 16:00:00+00:00,374.9998815884285
2025-10-14 17:00:00+00:00,374.9998815884285
2025-10-14 18:00:00+00:00,374.9998815884285
2025-10-14 19:00:00+00:00,374.9998815884285
2025-10-15 13:00:00+00:00,374.9998815884285
2025-10-15 14:00:00+00:00,374.9998815884285
2025-10-15 15:00:00+00:00,374.9998815884285
2025-10-15 18:00:00+00:00,374.9998815884285
2025-10-15 19:00:00+00:00,374.9998815884285
2025-10-16 13:00:00+00:00,374.9998815884285
2025-10-16 14:00:00+00:00,374.9998815884285
2025-10-16 15:00:00+00:00,374.9998815884285
2025-10-16 16:00:00+00:00,374.9998815884285
2025-10-16 17:00:00+00:00,374.9998815884285
2025-10-16 18:00:00+00:00,374.9998815884285
2025-10-16 19:00:00+00:00,374.9998815884285
2025-10-17 13:00:00+00:00,374.9998815884285
2025-10-17 14:00:00+00:00,374.9998815884285
2025-10-17 15:00:00+00:00,374.9998815884285
2025-10-17 17:00:00+00:00,374.9998815884285
2025-10-17 18:00:00+00:00,374.9998815884285
2025-10-20 13:00:00+00:00,374.9998815884285
2025-10-20 14:00:00+00:00,374.9998815884285
2025-10-20 17:00:00+00:00,374.9998815884285
2025-10-20 18:00:00+00:00,374.9998815884285
2025-10-21 13:00:00+00:00,374.9998815884285
2025-10-21 14:00:00+00:00,374.9998815884285
2025-10-21 16:00:00+00:00,374.9998815884285
2025-10-21 17:00:00+00:00,374.9998815884285
2025-10-21 18:00:00+00:00,374.9998815884285
2025-10-21 19:00:00+00:00,374.9998815884285
2025-10-22 13:00:00+00:00,374.9998815884285
2025-10-22 14:00:00+00:00,374.9998815884285
2025-10-22 16:00:00+00:00,374.9998815884285
2025-10-22 17:00:00+00:00,374.9998815884285
2025-10-22 18:00:00+00:00,374.9998815884285
2025-10-22 19:00:00+00:00,374.9998815884285
