Date,0
2024-01-02 14:00:00+00:00,0.0
2024-01-02 15:00:00+00:00,0.0
2024-01-02 16:00:00+00:00,0.0
2024-01-02 17:00:00+00:00,0.0
2024-01-02 18:00:00+00:00,0.0
2024-01-02 19:00:00+00:00,0.0
2024-01-02 20:00:00+00:00,0.0
2024-01-03 14:00:00+00:00,0.0
2024-01-03 15:00:00+00:00,0.0
2024-01-03 16:00:00+00:00,0.0
2024-01-03 17:00:00+00:00,0.0
2024-01-03 18:00:00+00:00,0.0
2024-01-03 19:00:00+00:00,0.0
2024-01-03 20:00:00+00:00,0.0
2024-01-04 14:00:00+00:00,0.0
2024-01-04 15:00:00+00:00,0.0
2024-01-04 16:00:00+00:00,0.0
2024-01-04 17:00:00+00:00,0.0
2024-01-04 18:00:00+00:00,0.0
2024-01-04 19:00:00+00:00,0.0
2024-01-04 20:00:00+00:00,0.0
2024-01-05 14:00:00+00:00,0.0
2024-01-05 15:00:00+00:00,0.0
2024-01-05 16:00:00+00:00,0.0
2024-01-05 17:00:00+00:00,0.0
2024-01-05 18:00:00+00:00,0.0
2024-01-05 19:00:00+00:00,0.0
2024-01-05 20:00:00+00:00,0.0
2024-01-08 14:00:00+00:00,0.0
2024-01-08 15:00:00+00:00,0.0
2024-01-08 16:00:00+00:00,0.0
2024-01-08 17:00:00+00:00,0.0
2024-01-08 18:00:00+00:00,0.0
2024-01-08 19:00:00+00:00,0.0
2024-01-08 20:00:00+00:00,0.0
2024-01-09 14:00:00+00:00,0.0
2024-01-09 15:00:00+00:00,0.0
2024-01-09 16:00:00+00:00,0.0
2024-01-09 17:00:00+00:00,0.0
2024-01-09 18:00:00+00:00,0.0
2024-01-09 19:00:00+00:00,0.0
2024-01-09 20:00:00+00:00,0.0
2024-01-10 14:00:00+00:00,0.0
2024-01-10 15:00:00+00:00,0.0
2024-01-10 16:00:00+00:00,0.0
2024-01-10 17:00:00+00:00,0.0
2024-01-10 18:00:00+00:00,0.0
2024-01-10 19:00:00+00:00,0.0
2024-01-10 20:00:00+00:00,0.0
2024-01-11 14:00:00+00:00,0.0
2024-01-11 15:00:00+00:00,0.0
2024-01-11 16:00:00+00:00,0.0
2024-01-11 17:00:00+00:00,0.0
2024-01-11 18:00:00+00:00,0.0
2024-01-11 19:00:00+00:00,0.0
2024-01-11 20:00:00+00:00,0.0
2024-01-12 14:00:00+00:00,0.0
2024-01-12 15:00:00+00:00,0.0
2024-01-12 16:00:00+00:00,0.0
2024-01-12 17:00:00+00:00,0.0
2024-01-12 18:00:00+00:00,0.0
2024-01-12 19:00:00+00:00,0.0
2024-01-12 20:00:00+00:00,0.0
2024-01-16 14:00:00+00:00,0.0
2024-01-16 15:00:00+00:00,0.0
2024-01-16 16:00:00+00:00,0.0
2024-01-16 17:00:00+00:00,0.0
2024-01-16 18:00:00+00:00,0.0
2024-01-16 19:00:00+00:00,0.0
2024-01-16 20:00:00+00:00,0.0
2024-01-17 14:00:00+00:00,0.0
2024-01-17 15:00:00+00:00,0.0
2024-01-17 16:00:00+00:00,0.0
2024-01-17 17:00:00+00:00,0.0
2024-01-17 18:00:00+00:00,0.0
2024-01-17 19:00:00+00:00,0.0
2024-01-17 20:00:00+00:00,0.0
2024-01-18 14:00:00+00:00,0.0
2024-01-18 15:00:00+00:00,0.0
2024-01-18 16:00:00+00:00,0.0
2024-01-18 17:00:00+00:00,0.0
2024-01-18 18:00:00+00:00,0.0
2024-01-18 19:00:00+00:00,0.0
2024-01-18 20:00:00+00:00,0.0
2024-01-19 14:00:00+00:00,0.0
2024-01-19 15:00:00+00:00,0.0
2024-01-19 16:00:00+00:00,0.0
2024-01-19 17:00:00+00:00,0.0
2024-01-19 18:00:00+00:00,0.0
2024-01-19 19:00:00+00:00,0.0
2024-01-19 20:00:00+00:00,0.0
2024-01-22 14:00:00+00:00,0.0
2024-01-22 15:00:00+00:00,0.0
2024-01-22 16:00:00+00:00,0.0
2024-01-22 17:00:00+00:00,0.0
2024-01-22 18:00:00+00:00,0.0
2024-01-22 19:00:00+00:00,0.0
2024-01-22 20:00:00+00:00,0.0
2024-01-23 14:00:00+00:00,0.0
2024-01-23 15:00:00+00:00,0.0
2024-01-23 16:00:00+00:00,0.0
2024-01-23 17:00:00+00:00,0.0
2024-01-23 18:00:00+00:00,0.0
2024-01-23 19:00:00+00:00,0.0
2024-01-23 20:00:00+00:00,0.0
2024-01-24 14:00:00+00:00,0.0
2024-01-24 15:00:00+00:00,0.0
2024-01-24 16:00:00+00:00,0.0
2024-01-24 17:00:00+00:00,0.0
2024-01-24 18:00:00+00:00,0.0
2024-01-24 19:00:00+00:00,0.0
2024-01-24 20:00:00+00:00,0.0
2024-01-25 14:00:00+00:00,0.0
2024-01-25 15:00:00+00:00,0.0
2024-01-25 16:00:00+00:00,0.0
2024-01-25 17:00:00+00:00,0.0
2024-01-25 18:00:00+00:00,0.0
2024-01-25 19:00:00+00:00,0.0
2024-01-25 20:00:00+00:00,0.0
2024-01-26 14:00:00+00:00,0.0
2024-01-26 15:00:00+00:00,0.0
2024-01-26 16:00:00+00:00,0.0
2024-01-26 17:00:00+00:00,0.0
2024-01-26 18:00:00+00:00,0.0
2024-01-26 19:00:00+00:00,0.0
2024-01-26 20:00:00+00:00,0.0
2024-01-29 14:00:00+00:00,0.0
2024-01-29 15:00:00+00:00,0.0
2024-01-29 16:00:00+00:00,0.0
2024-01-29 17:00:00+00:00,0.0
2024-01-29 18:00:00+00:00,0.0
2024-01-29 19:00:00+00:00,0.0
2024-01-29 20:00:00+00:00,0.0
2024-01-30 14:00:00+00:00,0.0
2024-01-30 15:00:00+00:00,0.0
2024-01-30 16:00:00+00:00,0.0
2024-01-30 17:00:00+00:00,0.0
2024-01-30 18:00:00+00:00,0.0
2024-01-30 19:00:00+00:00,0.0
2024-01-30 20:00:00+00:00,0.0
2024-01-31 14:00:00+00:00,0.0
2024-01-31 15:00:00+00:00,0.0
2024-01-31 16:00:00+00:00,0.0
2024-01-31 17:00:00+00:00,0.0
2024-01-31 18:00:00+00:00,0.0
2024-01-31 19:00:00+00:00,0.0
2024-01-31 20:00:00+00:00,0.0
2024-02-01 14:00:00+00:00,0.0
2024-02-01 15:00:00+00:00,0.0
2024-02-01 16:00:00+00:00,0.0
2024-02-01 17:00:00+00:00,0.0
2024-02-01 18:00:00+00:00,0.0
2024-02-01 19:00:00+00:00,0.0
2024-02-01 20:00:00+00:00,0.0
2024-02-02 14:00:00+00:00,0.0
2024-02-02 15:00:00+00:00,0.0
2024-02-02 16:00:00+00:00,0.0
2024-02-02 17:00:00+00:00,0.0
2024-02-02 18:00:00+00:00,0.0
2024-02-02 19:00:00+00:00,0.0
2024-02-02 20:00:00+00:00,0.0
2024-02-05 14:00:00+00:00,0.0
2024-02-05 15:00:00+00:00,0.0
2024-02-05 16:00:00+00:00,0.0
2024-02-05 17:00:00+00:00,0.0
2024-02-05 18:00:00+00:00,0.0
2024-02-05 19:00:00+00:00,0.0
2024-02-05 20:00:00+00:00,0.0
2024-02-06 14:00:00+00:00,0.0
2024-02-06 15:00:00+00:00,0.0
2024-02-06 16:00:00+00:00,0.0
2024-02-06 17:00:00+00:00,0.0
2024-02-06 18:00:00+00:00,0.0
2024-02-06 19:00:00+00:00,0.0
2024-02-06 20:00:00+00:00,0.0
2024-02-07 14:00:00+00:00,0.0
2024-02-07 15:00:00+00:00,0.0
2024-02-07 16:00:00+00:00,0.0
2024-02-07 17:00:00+00:00,0.0
2024-02-07 18:00:00+00:00,0.0
2024-02-07 19:00:00+00:00,0.0
2024-02-07 20:00:00+00:00,0.0
2024-02-08 14:00:00+00:00,0.0
2024-02-08 15:00:00+00:00,0.0
2024-02-08 16:00:00+00:00,0.0
2024-02-08 17:00:00+00:00,0.0
2024-02-08 18:00:00+00:00,0.0
2024-02-08 19:00:00+00:00,0.0
2024-02-08 20:00:00+00:00,0.0
2024-02-09 14:00:00+00:00,0.0
2024-02-09 15:00:00+00:00,0.0
2024-02-09 16:00:00+00:00,0.0
2024-02-09 17:00:00+00:00,0.0
2024-02-09 18:00:00+00:00,0.0
2024-02-09 19:00:00+00:00,0.0
2024-02-09 20:00:00+00:00,0.0
2024-02-12 14:00:00+00:00,0.0
2024-02-12 15:00:00+00:00,0.0
2024-02-12 16:00:00+00:00,0.0
2024-02-12 17:00:00+00:00,0.0
2024-02-12 18:00:00+00:00,0.0
2024-02-12 19:00:00+00:00,0.0
2024-02-12 20:00:00+00:00,0.0
2024-02-13 14:00:00+00:00,0.0
2024-02-13 15:00:00+00:00,0.0
2024-02-13 16:00:00+00:00,0.0
2024-02-13 17:00:00+00:00,0.0
2024-02-13 18:00:00+00:00,0.0
2024-02-13 19:00:00+00:00,0.0
2024-02-13 20:00:00+00:00,0.0
2024-02-14 14:00:00+00:00,0.0
2024-02-14 15:00:00+00:00,0.0
2024-02-14 16:00:00+00:00,0.0
2024-02-14 17:00:00+00:00,0.0
2024-02-14 18:00:00+00:00,0.0
2024-02-14 19:00:00+00:00,0.0
2024-02-14 20:00:00+00:00,0.0
2024-02-15 14:00:00+00:00,0.0
2024-02-15 15:00:00+00:00,0.0
2024-02-15 16:00:00+00:00,0.0
2024-02-15 17:00:00+00:00,0.0
2024-02-15 18:00:00+00:00,0.0
2024-02-15 19:00:00+00:00,0.0
2024-02-15 20:00:00+00:00,0.0
2024-02-16 14:00:00+00:00,0.0
2024-02-16 15:00:00+00:00,0.0
2024-02-16 16:00:00+00:00,0.0
2024-02-16 17:00:00+00:00,0.0
2024-02-16 18:00:00+00:00,0.0
2024-02-16 19:00:00+00:00,0.0
2024-02-16 20:00:00+00:00,0.0
2024-02-20 14:00:00+00:00,0.0
2024-02-20 15:00:00+00:00,0.0
2024-02-20 16:00:00+00:00,0.0
2024-02-20 17:00:00+00:00,0.0
2024-02-20 18:00:00+00:00,0.0
2024-02-20 19:00:00+00:00,0.0
2024-02-20 20:00:00+00:00,0.0
2024-02-21 14:00:00+00:00,0.0
2024-02-21 15:00:00+00:00,0.0
2024-02-21 16:00:00+00:00,0.0
2024-02-21 17:00:00+00:00,0.0
2024-02-21 18:00:00+00:00,0.0
2024-02-21 19:00:00+00:00,0.0
2024-02-21 20:00:00+00:00,0.0
2024-02-22 14:00:00+00:00,0.0
2024-02-22 15:00:00+00:00,0.0
2024-02-22 16:00:00+00:00,0.0
2024-02-22 17:00:00+00:00,0.0
2024-02-22 18:00:00+00:00,0.0
2024-02-22 19:00:00+00:00,0.0
2024-02-22 20:00:00+00:00,0.0
2024-02-23 14:00:00+00:00,0.0
2024-02-23 15:00:00+00:00,0.0
2024-02-23 16:00:00+00:00,0.0
2024-02-23 17:00:00+00:00,0.0
2024-02-23 18:00:00+00:00,0.0
2024-02-23 19:00:00+00:00,0.0
2024-02-23 20:00:00+00:00,0.0
2024-02-26 14:00:00+00:00,0.0
2024-02-26 15:00:00+00:00,0.0
2024-02-26 16:00:00+00:00,0.0
2024-02-26 17:00:00+00:00,0.0
2024-02-26 18:00:00+00:00,0.0
2024-02-26 19:00:00+00:00,0.0
2024-02-26 20:00:00+00:00,0.0
2024-02-27 14:00:00+00:00,0.0
2024-02-27 15:00:00+00:00,0.0
2024-02-27 16:00:00+00:00,0.0
2024-02-27 17:00:00+00:00,0.0
2024-02-27 18:00:00+00:00,0.0
2024-02-27 19:00:00+00:00,0.0
2024-02-27 20:00:00+00:00,0.0
2024-02-28 14:00:00+00:00,0.0
2024-02-28 15:00:00+00:00,0.0
2024-02-28 16:00:00+00:00,0.0
2024-02-28 17:00:00+00:00,0.0
2024-02-28 18:00:00+00:00,0.0
2024-02-28 19:00:00+00:00,0.0
2024-02-28 20:00:00+00:00,0.0
2024-02-29 14:00:00+00:00,0.0
2024-02-29 15:00:00+00:00,0.0
2024-02-29 16:00:00+00:00,0.0
2024-02-29 17:00:00+00:00,0.0
2024-02-29 18:00:00+00:00,0.0
2024-02-29 19:00:00+00:00,0.0
2024-02-29 20:00:00+00:00,0.0
2024-03-01 14:00:00+00:00,0.0
2024-03-01 15:00:00+00:00,0.0
2024-03-01 16:00:00+00:00,0.0
2024-03-01 17:00:00+00:00,0.0
2024-03-01 18:00:00+00:00,0.0
2024-03-01 19:00:00+00:00,0.0
2024-03-01 20:00:00+00:00,0.0
2024-03-04 14:00:00+00:00,0.0
2024-03-04 15:00:00+00:00,0.0
2024-03-04 16:00:00+00:00,0.0
2024-03-04 17:00:00+00:00,0.0
2024-03-04 18:00:00+00:00,0.0
2024-03-04 19:00:00+00:00,0.0
2024-03-04 20:00:00+00:00,0.0
2024-03-05 14:00:00+00:00,0.0
2024-03-05 15:00:00+00:00,0.0
2024-03-05 16:00:00+00:00,0.0
2024-03-05 17:00:00+00:00,0.0
2024-03-05 18:00:00+00:00,0.0
2024-03-05 19:00:00+00:00,0.0
2024-03-05 20:00:00+00:00,0.0
2024-03-06 14:00:00+00:00,0.0
2024-03-06 15:00:00+00:00,0.0
2024-03-06 16:00:00+00:00,0.0
2024-03-06 17:00:00+00:00,0.0
2024-03-06 18:00:00+00:00,0.0
2024-03-06 19:00:00+00:00,0.0
2024-03-06 20:00:00+00:00,0.0
2024-03-07 14:00:00+00:00,0.0
2024-03-07 15:00:00+00:00,0.0
2024-03-07 16:00:00+00:00,0.0
2024-03-07 17:00:00+00:00,0.0
2024-03-07 18:00:00+00:00,0.0
2024-03-07 19:00:00+00:00,0.0
2024-03-07 20:00:00+00:00,0.0
2024-03-08 14:00:00+00:00,0.0
2024-03-08 15:00:00+00:00,0.0
2024-03-08 16:00:00+00:00,0.0
2024-03-08 17:00:00+00:00,0.0
2024-03-08 18:00:00+00:00,0.0
2024-03-08 19:00:00+00:00,0.0
2024-03-08 20:00:00+00:00,0.0
2024-03-11 13:00:00+00:00,0.0
2024-03-11 14:00:00+00:00,0.0
2024-03-11 15:00:00+00:00,0.0
2024-03-11 16:00:00+00:00,0.0
2024-03-11 17:00:00+00:00,0.0
2024-03-11 18:00:00+00:00,0.0
2024-03-11 19:00:00+00:00,0.0
2024-03-12 13:00:00+00:00,0.0
2024-03-12 14:00:00+00:00,0.0
2024-03-12 15:00:00+00:00,0.0
2024-03-12 16:00:00+00:00,0.0
2024-03-12 17:00:00+00:00,0.0
2024-03-12 18:00:00+00:00,0.0
2024-03-12 19:00:00+00:00,0.0
2024-03-13 13:00:00+00:00,0.0
2024-03-13 14:00:00+00:00,0.0
2024-03-13 15:00:00+00:00,0.0
2024-03-13 16:00:00+00:00,0.0
2024-03-13 17:00:00+00:00,0.0
2024-03-13 18:00:00+00:00,0.0
2024-03-13 19:00:00+00:00,0.0
2024-03-14 13:00:00+00:00,0.0
2024-03-14 14:00:00+00:00,0.0
2024-03-14 15:00:00+00:00,0.0
2024-03-14 16:00:00+00:00,0.0
2024-03-14 17:00:00+00:00,0.0
2024-03-14 18:00:00+00:00,0.0
2024-03-14 19:00:00+00:00,0.0
2024-03-15 13:00:00+00:00,0.0
2024-03-15 14:00:00+00:00,0.0
2024-03-15 15:00:00+00:00,0.0
2024-03-15 16:00:00+00:00,0.0
2024-03-15 17:00:00+00:00,0.0
2024-03-15 18:00:00+00:00,0.0
2024-03-15 19:00:00+00:00,0.0
2024-03-18 13:00:00+00:00,0.0
2024-03-18 14:00:00+00:00,0.0
2024-03-18 15:00:00+00:00,0.0
2024-03-18 16:00:00+00:00,0.0
2024-03-18 17:00:00+00:00,0.0
2024-03-18 18:00:00+00:00,0.0
2024-03-18 19:00:00+00:00,0.0
2024-03-19 13:00:00+00:00,0.0
2024-03-19 14:00:00+00:00,0.0
2024-03-19 15:00:00+00:00,0.0
2024-03-19 16:00:00+00:00,0.0
2024-03-19 17:00:00+00:00,0.0
2024-03-19 18:00:00+00:00,0.0
2024-03-19 19:00:00+00:00,0.0
2024-03-20 13:00:00+00:00,0.0
2024-03-20 14:00:00+00:00,0.0
2024-03-20 15:00:00+00:00,0.0
2024-03-20 16:00:00+00:00,0.0
2024-03-20 17:00:00+00:00,0.0
2024-03-20 18:00:00+00:00,0.0
2024-03-20 19:00:00+00:00,0.0
2024-03-21 13:00:00+00:00,0.0
2024-03-21 14:00:00+00:00,0.0
2024-03-21 15:00:00+00:00,0.0
2024-03-21 16:00:00+00:00,0.0
2024-03-21 17:00:00+00:00,0.0
2024-03-21 18:00:00+00:00,0.0
2024-03-21 19:00:00+00:00,0.0
2024-03-22 13:00:00+00:00,0.0
2024-03-22 14:00:00+00:00,0.0
2024-03-22 15:00:00+00:00,0.0
2024-03-22 16:00:00+00:00,0.0
2024-03-22 17:00:00+00:00,0.0
2024-03-22 18:00:00+00:00,0.0
2024-03-22 19:00:00+00:00,0.0
2024-03-25 13:00:00+00:00,0.0
2024-03-25 14:00:00+00:00,0.0
2024-03-25 15:00:00+00:00,0.0
2024-03-25 16:00:00+00:00,0.0
2024-03-25 17:00:00+00:00,0.0
2024-03-25 18:00:00+00:00,0.0
2024-03-25 19:00:00+00:00,0.0
2024-03-26 13:00:00+00:00,0.0
2024-03-26 14:00:00+00:00,0.0
2024-03-26 15:00:00+00:00,0.0
2024-03-26 16:00:00+00:00,0.0
2024-03-26 17:00:00+00:00,0.0
2024-03-26 18:00:00+00:00,0.0
2024-03-26 19:00:00+00:00,0.0
2024-03-27 13:00:00+00:00,0.0
2024-03-27 14:00:00+00:00,0.0
2024-03-27 15:00:00+00:00,0.0
2024-03-27 16:00:00+00:00,0.0
2024-03-27 17:00:00+00:00,0.0
2024-03-27 18:00:00+00:00,0.0
2024-03-27 19:00:00+00:00,0.0
2024-03-28 13:00:00+00:00,0.0
2024-03-28 14:00:00+00:00,0.0
2024-03-28 15:00:00+00:00,0.0
2024-03-28 16:00:00+00:00,0.0
2024-03-28 17:00:00+00:00,0.0
2024-03-28 18:00:00+00:00,0.0
2024-03-28 19:00:00+00:00,0.0
2024-04-01 13:00:00+00:00,0.0
2024-04-01 14:00:00+00:00,0.0
2024-04-01 15:00:00+00:00,0.0
2024-04-01 16:00:00+00:00,0.0
2024-04-01 17:00:00+00:00,0.0
2024-04-01 18:00:00+00:00,0.0
2024-04-01 19:00:00+00:00,0.0
2024-04-02 13:00:00+00:00,0.0
2024-04-02 14:00:00+00:00,0.0
2024-04-02 15:00:00+00:00,0.0
2024-04-02 16:00:00+00:00,0.0
2024-04-02 17:00:00+00:00,0.0
2024-04-02 18:00:00+00:00,0.0
2024-04-02 19:00:00+00:00,0.0
2024-04-03 13:00:00+00:00,0.0
2024-04-03 14:00:00+00:00,0.0
2024-04-03 15:00:00+00:00,0.0
2024-04-03 16:00:00+00:00,0.0
2024-04-03 17:00:00+00:00,0.0
2024-04-03 18:00:00+00:00,0.0
2024-04-03 19:00:00+00:00,0.0
2024-04-04 13:00:00+00:00,0.0
2024-04-04 14:00:00+00:00,0.0
2024-04-04 15:00:00+00:00,0.0
2024-04-04 16:00:00+00:00,0.0
2024-04-04 17:00:00+00:00,0.0
2024-04-04 18:00:00+00:00,0.0
2024-04-04 19:00:00+00:00,0.0
2024-04-05 13:00:00+00:00,0.0
2024-04-05 14:00:00+00:00,0.0
2024-04-05 15:00:00+00:00,0.0
2024-04-05 16:00:00+00:00,0.0
2024-04-05 17:00:00+00:00,0.0
2024-04-05 18:00:00+00:00,0.0
2024-04-05 19:00:00+00:00,0.0
2024-04-08 13:00:00+00:00,0.0
2024-04-08 14:00:00+00:00,0.0
2024-04-08 15:00:00+00:00,0.0
2024-04-08 16:00:00+00:00,0.0
2024-04-08 17:00:00+00:00,0.0
2024-04-08 18:00:00+00:00,0.0
2024-04-08 19:00:00+00:00,0.0
2024-04-09 13:00:00+00:00,0.0
2024-04-09 14:00:00+00:00,0.0
2024-04-09 15:00:00+00:00,0.0
2024-04-09 16:00:00+00:00,0.0
2024-04-09 17:00:00+00:00,0.0
2024-04-09 18:00:00+00:00,0.0
2024-04-09 19:00:00+00:00,0.0
2024-04-10 13:00:00+00:00,0.0
2024-04-10 14:00:00+00:00,0.0
2024-04-10 15:00:00+00:00,0.0
2024-04-10 16:00:00+00:00,0.0
2024-04-10 17:00:00+00:00,0.0
2024-04-10 18:00:00+00:00,0.0
2024-04-10 19:00:00+00:00,0.0
2024-04-11 13:00:00+00:00,0.0
2024-04-11 14:00:00+00:00,0.0
2024-04-11 15:00:00+00:00,0.0
2024-04-11 16:00:00+00:00,0.0
2024-04-11 17:00:00+00:00,0.0
2024-04-11 18:00:00+00:00,0.0
2024-04-11 19:00:00+00:00,0.0
2024-04-12 13:00:00+00:00,0.0
2024-04-12 14:00:00+00:00,0.0
2024-04-12 15:00:00+00:00,0.0
2024-04-12 16:00:00+00:00,0.0
2024-04-12 17:00:00+00:00,0.0
2024-04-12 18:00:00+00:00,0.0
2024-04-12 19:00:00+00:00,0.0
2024-04-15 13:00:00+00:00,0.0
2024-04-15 14:00:00+00:00,0.0
2024-04-15 15:00:00+00:00,0.0
2024-04-15 16:00:00+00:00,0.0
2024-04-15 17:00:00+00:00,0.0
2024-04-15 18:00:00+00:00,0.0
2024-04-15 19:00:00+00:00,0.0
2024-04-16 13:00:00+00:00,0.0
2024-04-16 14:00:00+00:00,0.0
2024-04-16 15:00:00+00:00,0.0
2024-04-16 16:00:00+00:00,0.0
2024-04-16 17:00:00+00:00,0.0
2024-04-16 18:00:00+00:00,0.0
2024-04-16 19:00:00+00:00,0.0
2024-04-17 13:00:00+00:00,0.0
2024-04-17 14:00:00+00:00,0.0
2024-04-17 15:00:00+00:00,0.0
2024-04-17 16:00:00+00:00,0.0
2024-04-17 17:00:00+00:00,0.0
2024-04-17 18:00:00+00:00,0.0
2024-04-17 19:00:00+00:00,0.0
2024-04-18 13:00:00+00:00,0.0
2024-04-18 14:00:00+00:00,0.0
2024-04-18 15:00:00+00:00,0.0
2024-04-18 16:00:00+00:00,0.0
2024-04-18 17:00:00+00:00,0.0
2024-04-18 18:00:00+00:00,0.0
2024-04-18 19:00:00+00:00,0.0
2024-04-19 13:00:00+00:00,0.0
2024-04-19 14:00:00+00:00,0.0
2024-04-19 15:00:00+00:00,0.0
2024-04-19 16:00:00+00:00,0.0
2024-04-19 17:00:00+00:00,0.0
2024-04-19 18:00:00+00:00,0.0
2024-04-19 19:00:00+00:00,0.0
2024-04-22 13:00:00+00:00,0.0
2024-04-22 14:00:00+00:00,0.0
2024-04-22 15:00:00+00:00,0.0
2024-04-22 16:00:00+00:00,0.0
2024-04-22 17:00:00+00:00,0.0
2024-04-22 18:00:00+00:00,0.0
2024-04-22 19:00:00+00:00,0.0
2024-04-23 13:00:00+00:00,0.0
2024-04-23 14:00:00+00:00,0.0
2024-04-23 15:00:00+00:00,0.0
2024-04-23 16:00:00+00:00,0.0
2024-04-23 17:00:00+00:00,0.0
2024-04-23 18:00:00+00:00,0.0
2024-04-23 19:00:00+00:00,0.0
2024-04-24 13:00:00+00:00,0.0
2024-04-24 14:00:00+00:00,0.0
2024-04-24 15:00:00+00:00,0.0
2024-04-24 16:00:00+00:00,0.0
2024-04-24 17:00:00+00:00,0.0
2024-04-24 18:00:00+00:00,0.0
2024-04-24 19:00:00+00:00,0.0
2024-04-25 13:00:00+00:00,0.0
2024-04-25 14:00:00+00:00,0.0
2024-04-25 15:00:00+00:00,0.0
2024-04-25 16:00:00+00:00,0.0
2024-04-25 17:00:00+00:00,0.0
2024-04-25 18:00:00+00:00,0.0
2024-04-25 19:00:00+00:00,0.0
2024-04-26 13:00:00+00:00,0.0
2024-04-26 14:00:00+00:00,0.0
2024-04-26 15:00:00+00:00,0.0
2024-04-26 16:00:00+00:00,0.0
2024-04-26 17:00:00+00:00,0.0
2024-04-26 18:00:00+00:00,0.0
2024-04-26 19:00:00+00:00,0.0
2024-04-29 13:00:00+00:00,0.0
2024-04-29 14:00:00+00:00,0.0
2024-04-29 15:00:00+00:00,0.0
2024-04-29 16:00:00+00:00,0.0
2024-04-29 17:00:00+00:00,0.0
2024-04-29 18:00:00+00:00,0.0
2024-04-29 19:00:00+00:00,0.0
2024-04-30 13:00:00+00:00,0.0
2024-04-30 14:00:00+00:00,0.0
2024-04-30 15:00:00+00:00,0.0
2024-04-30 16:00:00+00:00,0.0
2024-04-30 17:00:00+00:00,0.0
2024-04-30 18:00:00+00:00,0.0
2024-04-30 19:00:00+00:00,0.0
2024-05-01 13:00:00+00:00,0.0
2024-05-01 14:00:00+00:00,0.0
2024-05-01 15:00:00+00:00,0.0
2024-05-01 16:00:00+00:00,0.0
2024-05-01 17:00:00+00:00,0.0
2024-05-01 18:00:00+00:00,0.0
2024-05-01 19:00:00+00:00,0.0
2024-05-02 13:00:00+00:00,0.0
2024-05-02 14:00:00+00:00,0.0
2024-05-02 15:00:00+00:00,0.0
2024-05-02 16:00:00+00:00,0.0
2024-05-02 17:00:00+00:00,0.0
2024-05-02 18:00:00+00:00,0.0
2024-05-02 19:00:00+00:00,0.0
2024-05-03 13:00:00+00:00,0.0
2024-05-03 14:00:00+00:00,0.0
2024-05-03 15:00:00+00:00,0.0
2024-05-03 16:00:00+00:00,0.0
2024-05-03 17:00:00+00:00,0.0
2024-05-03 18:00:00+00:00,0.0
2024-05-03 19:00:00+00:00,0.0
2024-05-06 13:00:00+00:00,0.0
2024-05-06 14:00:00+00:00,0.0
2024-05-06 15:00:00+00:00,0.0
2024-05-06 16:00:00+00:00,0.0
2024-05-06 17:00:00+00:00,0.0
2024-05-06 18:00:00+00:00,0.0
2024-05-06 19:00:00+00:00,0.0
2024-05-07 13:00:00+00:00,0.0
2024-05-07 14:00:00+00:00,0.0
2024-05-07 15:00:00+00:00,0.0
2024-05-07 16:00:00+00:00,0.0
2024-05-07 17:00:00+00:00,0.0
2024-05-07 18:00:00+00:00,0.0
2024-05-07 19:00:00+00:00,0.0
2024-05-08 13:00:00+00:00,0.0
2024-05-08 14:00:00+00:00,0.0
2024-05-08 15:00:00+00:00,0.0
2024-05-08 16:00:00+00:00,0.0
2024-05-08 17:00:00+00:00,0.0
2024-05-08 18:00:00+00:00,0.0
2024-05-08 19:00:00+00:00,0.0
2024-05-09 13:00:00+00:00,0.0
2024-05-09 14:00:00+00:00,0.0
2024-05-09 15:00:00+00:00,0.0
2024-05-09 16:00:00+00:00,0.0
2024-05-09 17:00:00+00:00,0.0
2024-05-09 18:00:00+00:00,0.0
2024-05-09 19:00:00+00:00,0.0
2024-05-10 13:00:00+00:00,0.0
2024-05-10 14:00:00+00:00,0.0
2024-05-10 15:00:00+00:00,0.0
2024-05-10 16:00:00+00:00,0.0
2024-05-10 17:00:00+00:00,0.0
2024-05-10 18:00:00+00:00,0.0
2024-05-10 19:00:00+00:00,0.0
2024-05-13 13:00:00+00:00,0.0
2024-05-13 14:00:00+00:00,0.0
2024-05-13 15:00:00+00:00,0.0
2024-05-13 16:00:00+00:00,0.0
2024-05-13 17:00:00+00:00,0.0
2024-05-13 18:00:00+00:00,0.0
2024-05-13 19:00:00+00:00,0.0
2024-05-14 13:00:00+00:00,0.0
2024-05-14 14:00:00+00:00,0.0
2024-05-14 15:00:00+00:00,0.0
2024-05-14 16:00:00+00:00,0.0
2024-05-14 17:00:00+00:00,0.0
2024-05-14 18:00:00+00:00,0.0
2024-05-14 19:00:00+00:00,0.0
2024-05-15 13:00:00+00:00,0.0
2024-05-15 14:00:00+00:00,0.0
2024-05-15 15:00:00+00:00,0.0
2024-05-15 16:00:00+00:00,0.0
2024-05-15 17:00:00+00:00,0.0
2024-05-15 18:00:00+00:00,0.0
2024-05-15 19:00:00+00:00,0.0
2024-05-16 13:00:00+00:00,0.0
2024-05-16 14:00:00+00:00,0.0
2024-05-16 15:00:00+00:00,0.0
2024-05-16 16:00:00+00:00,0.0
2024-05-16 17:00:00+00:00,0.0
2024-05-16 18:00:00+00:00,0.0
2024-05-16 19:00:00+00:00,0.0
2024-05-17 13:00:00+00:00,0.0
2024-05-17 14:00:00+00:00,0.0
2024-05-17 15:00:00+00:00,0.0
2024-05-17 16:00:00+00:00,0.0
2024-05-17 17:00:00+00:00,0.0
2024-05-17 18:00:00+00:00,0.0
2024-05-17 19:00:00+00:00,0.0
2024-05-20 13:00:00+00:00,0.0
2024-05-20 14:00:00+00:00,0.0
2024-05-20 15:00:00+00:00,0.0
2024-05-20 16:00:00+00:00,0.0
2024-05-20 17:00:00+00:00,0.0
2024-05-20 18:00:00+00:00,0.0
2024-05-20 19:00:00+00:00,0.0
2024-05-21 13:00:00+00:00,0.0
2024-05-21 14:00:00+00:00,0.0
2024-05-21 15:00:00+00:00,0.0
2024-05-21 16:00:00+00:00,0.0
2024-05-21 17:00:00+00:00,0.0
2024-05-21 18:00:00+00:00,0.0
2024-05-21 19:00:00+00:00,0.0
2024-05-22 13:00:00+00:00,0.0
2024-05-22 14:00:00+00:00,0.0
2024-05-22 15:00:00+00:00,0.0
2024-05-22 16:00:00+00:00,0.0
2024-05-22 17:00:00+00:00,0.0
2024-05-22 18:00:00+00:00,0.0
2024-05-22 19:00:00+00:00,0.0
2024-05-23 13:00:00+00:00,0.0
2024-05-23 14:00:00+00:00,0.0
2024-05-23 15:00:00+00:00,0.0
2024-05-23 16:00:00+00:00,0.0
2024-05-23 17:00:00+00:00,0.0
2024-05-23 18:00:00+00:00,0.0
2024-05-23 19:00:00+00:00,0.0
2024-05-24 13:00:00+00:00,0.0
2024-05-24 14:00:00+00:00,0.0
2024-05-24 15:00:00+00:00,0.0
2024-05-24 16:00:00+00:00,0.0
2024-05-24 17:00:00+00:00,0.0
2024-05-24 18:00:00+00:00,0.0
2024-05-24 19:00:00+00:00,0.0
2024-05-28 13:00:00+00:00,0.0
2024-05-28 14:00:00+00:00,0.0
2024-05-28 15:00:00+00:00,0.0
2024-05-28 16:00:00+00:00,0.0
2024-05-28 17:00:00+00:00,0.0
2024-05-28 18:00:00+00:00,0.0
2024-05-28 19:00:00+00:00,0.0
2024-05-29 13:00:00+00:00,0.0
2024-05-29 14:00:00+00:00,0.0
2024-05-29 15:00:00+00:00,0.0
2024-05-29 16:00:00+00:00,0.0
2024-05-29 17:00:00+00:00,0.0
2024-05-29 18:00:00+00:00,0.0
2024-05-29 19:00:00+00:00,0.0
2024-05-30 13:00:00+00:00,0.0
2024-05-30 14:00:00+00:00,0.0
2024-05-30 15:00:00+00:00,0.0
2024-05-30 16:00:00+00:00,0.0
2024-05-30 17:00:00+00:00,0.0
2024-05-30 18:00:00+00:00,0.0
2024-05-30 19:00:00+00:00,0.0
2024-05-31 13:00:00+00:00,0.0
2024-05-31 14:00:00+00:00,0.0
2024-05-31 15:00:00+00:00,0.0
2024-05-31 16:00:00+00:00,0.0
2024-05-31 17:00:00+00:00,0.0
2024-05-31 18:00:00+00:00,0.0
2024-05-31 19:00:00+00:00,0.0
2024-06-03 13:00:00+00:00,0.0
2024-06-03 14:00:00+00:00,0.0
2024-06-03 15:00:00+00:00,0.0
2024-06-03 16:00:00+00:00,0.0
2024-06-03 17:00:00+00:00,0.0
2024-06-03 18:00:00+00:00,0.0
2024-06-03 19:00:00+00:00,0.0
2024-06-04 13:00:00+00:00,0.0
2024-06-04 14:00:00+00:00,0.0
2024-06-04 15:00:00+00:00,0.0
2024-06-04 16:00:00+00:00,0.0
2024-06-04 17:00:00+00:00,0.0
2024-06-04 18:00:00+00:00,0.0
2024-06-04 19:00:00+00:00,0.0
2024-06-05 13:00:00+00:00,0.0
2024-06-05 14:00:00+00:00,0.0
2024-06-05 15:00:00+00:00,0.0
2024-06-05 16:00:00+00:00,0.0
2024-06-05 17:00:00+00:00,0.0
2024-06-05 18:00:00+00:00,0.0
2024-06-05 19:00:00+00:00,0.0
2024-06-06 13:00:00+00:00,0.0
2024-06-06 14:00:00+00:00,0.0
2024-06-06 15:00:00+00:00,0.0
2024-06-06 16:00:00+00:00,0.0
2024-06-06 17:00:00+00:00,0.0
2024-06-06 18:00:00+00:00,0.0
2024-06-06 19:00:00+00:00,0.0
2024-06-07 13:00:00+00:00,0.0
2024-06-07 14:00:00+00:00,0.0
2024-06-07 15:00:00+00:00,0.0
2024-06-07 16:00:00+00:00,0.0
2024-06-07 17:00:00+00:00,0.0
2024-06-07 18:00:00+00:00,0.0
2024-06-07 19:00:00+00:00,0.0
2024-06-10 13:00:00+00:00,0.0
2024-06-10 14:00:00+00:00,0.0
2024-06-10 15:00:00+00:00,0.0
2024-06-10 16:00:00+00:00,0.0
2024-06-10 17:00:00+00:00,0.0
2024-06-10 18:00:00+00:00,0.0
2024-06-10 19:00:00+00:00,0.0
2024-06-11 13:00:00+00:00,0.0
2024-06-11 14:00:00+00:00,0.0
2024-06-11 15:00:00+00:00,0.0
2024-06-11 16:00:00+00:00,0.0
2024-06-11 17:00:00+00:00,0.0
2024-06-11 18:00:00+00:00,0.0
2024-06-11 19:00:00+00:00,0.0
2024-06-12 13:00:00+00:00,0.0
2024-06-12 14:00:00+00:00,0.0
2024-06-12 15:00:00+00:00,0.0
2024-06-12 16:00:00+00:00,0.0
2024-06-12 17:00:00+00:00,0.0
2024-06-12 18:00:00+00:00,0.0
2024-06-12 19:00:00+00:00,0.0
2024-06-13 13:00:00+00:00,0.0
2024-06-13 14:00:00+00:00,0.0
2024-06-13 15:00:00+00:00,0.0
2024-06-13 16:00:00+00:00,0.0
2024-06-13 17:00:00+00:00,0.0
2024-06-13 18:00:00+00:00,0.0
2024-06-13 19:00:00+00:00,0.0
2024-06-14 13:00:00+00:00,0.0
2024-06-14 14:00:00+00:00,0.0
2024-06-14 15:00:00+00:00,0.0
2024-06-14 16:00:00+00:00,0.0
2024-06-14 17:00:00+00:00,0.0
2024-06-14 18:00:00+00:00,0.0
2024-06-14 19:00:00+00:00,0.0
2024-06-17 13:00:00+00:00,0.0
2024-06-17 14:00:00+00:00,0.0
2024-06-17 15:00:00+00:00,0.0
2024-06-17 16:00:00+00:00,0.0
2024-06-17 17:00:00+00:00,0.0
2024-06-17 18:00:00+00:00,0.0
2024-06-17 19:00:00+00:00,0.0
2024-06-18 13:00:00+00:00,0.0
2024-06-18 14:00:00+00:00,0.0
2024-06-18 15:00:00+00:00,0.0
2024-06-18 16:00:00+00:00,0.0
2024-06-18 17:00:00+00:00,0.0
2024-06-18 18:00:00+00:00,0.0
2024-06-18 19:00:00+00:00,0.0
2024-06-20 13:00:00+00:00,0.0
2024-06-20 14:00:00+00:00,0.0
2024-06-20 15:00:00+00:00,0.0
2024-06-20 16:00:00+00:00,0.0
2024-06-20 17:00:00+00:00,0.0
2024-06-20 18:00:00+00:00,0.0
2024-06-20 19:00:00+00:00,0.0
2024-06-21 13:00:00+00:00,0.0
2024-06-21 14:00:00+00:00,0.0
2024-06-21 15:00:00+00:00,0.0
2024-06-21 16:00:00+00:00,0.0
2024-06-21 17:00:00+00:00,0.0
2024-06-21 18:00:00+00:00,0.0
2024-06-21 19:00:00+00:00,0.0
2024-06-24 13:00:00+00:00,0.0
2024-06-24 14:00:00+00:00,0.0
2024-06-24 15:00:00+00:00,0.0
2024-06-24 16:00:00+00:00,0.0
2024-06-24 17:00:00+00:00,0.0
2024-06-24 18:00:00+00:00,0.0
2024-06-24 19:00:00+00:00,0.0
2024-06-25 13:00:00+00:00,0.0
2024-06-25 14:00:00+00:00,0.0
2024-06-25 15:00:00+00:00,0.0
2024-06-25 16:00:00+00:00,0.0
2024-06-25 17:00:00+00:00,0.0
2024-06-25 18:00:00+00:00,0.0
2024-06-25 19:00:00+00:00,0.0
2024-06-26 13:00:00+00:00,0.0
2024-06-26 14:00:00+00:00,0.0
2024-06-26 15:00:00+00:00,0.0
2024-06-26 16:00:00+00:00,0.0
2024-06-26 17:00:00+00:00,0.0
2024-06-26 18:00:00+00:00,0.0
2024-06-26 19:00:00+00:00,0.0
2024-06-27 13:00:00+00:00,0.0
2024-06-27 14:00:00+00:00,0.0
2024-06-27 15:00:00+00:00,0.0
2024-06-27 16:00:00+00:00,0.0
2024-06-27 17:00:00+00:00,0.0
2024-06-27 18:00:00+00:00,0.0
2024-06-27 19:00:00+00:00,0.0
2024-06-28 13:00:00+00:00,0.0
2024-06-28 14:00:00+00:00,0.0
2024-06-28 15:00:00+00:00,0.0
2024-06-28 16:00:00+00:00,0.0
2024-06-28 17:00:00+00:00,0.0
2024-06-28 18:00:00+00:00,0.0
2024-06-28 19:00:00+00:00,0.0
2024-07-01 13:00:00+00:00,0.0
2024-07-01 14:00:00+00:00,0.0
2024-07-01 15:00:00+00:00,0.0
2024-07-01 16:00:00+00:00,0.0
2024-07-01 17:00:00+00:00,0.0
2024-07-01 18:00:00+00:00,0.0
2024-07-01 19:00:00+00:00,0.0
2024-07-02 13:00:00+00:00,0.0
2024-07-02 14:00:00+00:00,0.0
2024-07-02 15:00:00+00:00,0.0
2024-07-02 16:00:00+00:00,0.0
2024-07-02 17:00:00+00:00,0.0
2024-07-02 18:00:00+00:00,0.0
2024-07-02 19:00:00+00:00,0.0
2024-07-03 13:00:00+00:00,0.0
2024-07-03 14:00:00+00:00,0.0
2024-07-03 15:00:00+00:00,0.0
2024-07-05 13:00:00+00:00,0.0
2024-07-05 14:00:00+00:00,0.0
2024-07-05 15:00:00+00:00,0.0
2024-07-05 16:00:00+00:00,0.0
2024-07-05 17:00:00+00:00,0.0
2024-07-05 18:00:00+00:00,0.0
2024-07-05 19:00:00+00:00,0.0
2024-07-08 13:00:00+00:00,0.0
2024-07-08 14:00:00+00:00,0.0
2024-07-08 15:00:00+00:00,0.0
2024-07-08 16:00:00+00:00,0.0
2024-07-08 17:00:00+00:00,0.0
2024-07-08 18:00:00+00:00,0.0
2024-07-08 19:00:00+00:00,0.0
2024-07-09 13:00:00+00:00,0.0
2024-07-09 14:00:00+00:00,0.0
2024-07-09 15:00:00+00:00,0.0
2024-07-09 16:00:00+00:00,0.0
2024-07-09 17:00:00+00:00,0.0
2024-07-09 18:00:00+00:00,0.0
2024-07-09 19:00:00+00:00,0.0
2024-07-10 13:00:00+00:00,0.0
2024-07-10 14:00:00+00:00,0.0
2024-07-10 15:00:00+00:00,0.0
2024-07-10 16:00:00+00:00,0.0
2024-07-10 17:00:00+00:00,0.0
2024-07-10 18:00:00+00:00,0.0
2024-07-10 19:00:00+00:00,0.0
2024-07-11 13:00:00+00:00,0.0
2024-07-11 14:00:00+00:00,0.0
2024-07-11 15:00:00+00:00,0.0
2024-07-11 16:00:00+00:00,0.0
2024-07-11 17:00:00+00:00,0.0
2024-07-11 18:00:00+00:00,0.0
2024-07-11 19:00:00+00:00,0.0
2024-07-12 13:00:00+00:00,0.0
2024-07-12 14:00:00+00:00,0.0
2024-07-12 15:00:00+00:00,0.0
2024-07-12 16:00:00+00:00,0.0
2024-07-12 17:00:00+00:00,0.0
2024-07-12 18:00:00+00:00,0.0
2024-07-12 19:00:00+00:00,0.0
2024-07-15 13:00:00+00:00,0.0
2024-07-15 14:00:00+00:00,0.0
2024-07-15 15:00:00+00:00,0.0
2024-07-15 16:00:00+00:00,0.0
2024-07-15 17:00:00+00:00,0.0
2024-07-15 18:00:00+00:00,0.0
2024-07-15 19:00:00+00:00,0.0
2024-07-16 13:00:00+00:00,0.0
2024-07-16 14:00:00+00:00,0.0
2024-07-16 15:00:00+00:00,0.0
2024-07-16 16:00:00+00:00,0.0
2024-07-16 17:00:00+00:00,0.0
2024-07-16 18:00:00+00:00,0.0
2024-07-16 19:00:00+00:00,0.0
2024-07-17 13:00:00+00:00,0.0
2024-07-17 14:00:00+00:00,0.0
2024-07-17 15:00:00+00:00,0.0
2024-07-17 16:00:00+00:00,0.0
2024-07-17 17:00:00+00:00,0.0
2024-07-17 18:00:00+00:00,0.0
2024-07-17 19:00:00+00:00,0.0
2024-07-18 13:00:00+00:00,0.0
2024-07-18 14:00:00+00:00,0.0
2024-07-18 15:00:00+00:00,0.0
2024-07-18 16:00:00+00:00,0.0
2024-07-18 17:00:00+00:00,0.0
2024-07-18 18:00:00+00:00,0.0
2024-07-18 19:00:00+00:00,0.0
2024-07-19 13:00:00+00:00,0.0
2024-07-19 14:00:00+00:00,0.0
2024-07-19 15:00:00+00:00,0.0
2024-07-19 16:00:00+00:00,0.0
2024-07-19 17:00:00+00:00,0.0
2024-07-19 18:00:00+00:00,0.0
2024-07-19 19:00:00+00:00,0.0
2024-07-22 13:00:00+00:00,0.0
2024-07-22 14:00:00+00:00,0.0
2024-07-22 15:00:00+00:00,0.0
2024-07-22 16:00:00+00:00,0.0
2024-07-22 17:00:00+00:00,0.0
2024-07-22 18:00:00+00:00,0.0
2024-07-22 19:00:00+00:00,0.0
2024-07-23 13:00:00+00:00,0.0
2024-07-23 14:00:00+00:00,0.0
2024-07-23 15:00:00+00:00,0.0
2024-07-23 16:00:00+00:00,0.0
2024-07-23 17:00:00+00:00,0.0
2024-07-23 18:00:00+00:00,0.0
2024-07-23 19:00:00+00:00,0.0
2024-07-24 13:00:00+00:00,0.0
2024-07-24 14:00:00+00:00,0.0
2024-07-24 15:00:00+00:00,0.0
2024-07-24 16:00:00+00:00,0.0
2024-07-24 17:00:00+00:00,0.0
2024-07-24 18:00:00+00:00,0.0
2024-07-24 19:00:00+00:00,0.0
2024-07-25 13:00:00+00:00,0.0
2024-07-25 14:00:00+00:00,0.0
2024-07-25 15:00:00+00:00,0.0
2024-07-25 16:00:00+00:00,0.0
2024-07-25 17:00:00+00:00,0.0
2024-07-25 18:00:00+00:00,0.0
2024-07-25 19:00:00+00:00,0.0
2024-07-26 13:00:00+00:00,0.0
2024-07-26 14:00:00+00:00,0.0
2024-07-26 15:00:00+00:00,0.0
2024-07-26 16:00:00+00:00,0.0
2024-07-26 17:00:00+00:00,0.0
2024-07-26 18:00:00+00:00,0.0
2024-07-26 19:00:00+00:00,0.0
2024-07-29 13:00:00+00:00,0.0
2024-07-29 14:00:00+00:00,0.0
2024-07-29 15:00:00+00:00,0.0
2024-07-29 16:00:00+00:00,0.0
2024-07-29 17:00:00+00:00,0.0
2024-07-29 18:00:00+00:00,0.0
2024-07-29 19:00:00+00:00,0.0
2024-07-30 13:00:00+00:00,0.0
2024-07-30 14:00:00+00:00,0.0
2024-07-30 15:00:00+00:00,0.0
2024-07-30 16:00:00+00:00,0.0
2024-07-30 17:00:00+00:00,0.0
2024-07-30 18:00:00+00:00,0.0
2024-07-30 19:00:00+00:00,0.0
2024-07-31 13:00:00+00:00,0.0
2024-07-31 14:00:00+00:00,0.0
2024-07-31 15:00:00+00:00,0.0
2024-07-31 16:00:00+00:00,0.0
2024-07-31 17:00:00+00:00,0.0
2024-07-31 18:00:00+00:00,0.0
2024-07-31 19:00:00+00:00,0.0
2024-08-01 13:00:00+00:00,0.0
2024-08-01 14:00:00+00:00,0.0
2024-08-01 15:00:00+00:00,0.0
2024-08-01 16:00:00+00:00,0.0
2024-08-01 17:00:00+00:00,0.0
2024-08-01 18:00:00+00:00,0.0
2024-08-01 19:00:00+00:00,0.0
2024-08-02 13:00:00+00:00,0.0
2024-08-02 14:00:00+00:00,0.0
2024-08-02 15:00:00+00:00,0.0
2024-08-02 16:00:00+00:00,0.0
2024-08-02 17:00:00+00:00,0.0
2024-08-02 18:00:00+00:00,0.0
2024-08-02 19:00:00+00:00,0.0
2024-08-05 13:00:00+00:00,0.0
2024-08-05 14:00:00+00:00,0.0
2024-08-05 15:00:00+00:00,0.0
2024-08-05 16:00:00+00:00,0.0
2024-08-05 17:00:00+00:00,0.0
2024-08-05 18:00:00+00:00,0.0
2024-08-05 19:00:00+00:00,0.0
2024-08-06 13:00:00+00:00,0.0
2024-08-06 14:00:00+00:00,0.0
2024-08-06 15:00:00+00:00,0.0
2024-08-06 16:00:00+00:00,0.0
2024-08-06 17:00:00+00:00,0.0
2024-08-06 18:00:00+00:00,0.0
2024-08-06 19:00:00+00:00,0.0
2024-08-07 13:00:00+00:00,0.0
2024-08-07 14:00:00+00:00,0.0
2024-08-07 15:00:00+00:00,0.0
2024-08-07 16:00:00+00:00,0.0
2024-08-07 17:00:00+00:00,0.0
2024-08-07 18:00:00+00:00,0.0
2024-08-07 19:00:00+00:00,0.0
2024-08-08 13:00:00+00:00,0.0
2024-08-08 14:00:00+00:00,0.0
2024-08-08 15:00:00+00:00,0.0
2024-08-08 16:00:00+00:00,0.0
2024-08-08 17:00:00+00:00,0.0
2024-08-08 18:00:00+00:00,0.0
2024-08-08 19:00:00+00:00,0.0
2024-08-09 13:00:00+00:00,0.0
2024-08-09 14:00:00+00:00,0.0
2024-08-09 15:00:00+00:00,0.0
2024-08-09 16:00:00+00:00,0.0
2024-08-09 17:00:00+00:00,0.0
2024-08-09 18:00:00+00:00,0.0
2024-08-09 19:00:00+00:00,0.0
2024-08-12 13:00:00+00:00,0.0
2024-08-12 14:00:00+00:00,0.0
2024-08-12 15:00:00+00:00,0.0
2024-08-12 16:00:00+00:00,0.0
2024-08-12 17:00:00+00:00,0.0
2024-08-12 18:00:00+00:00,0.0
2024-08-12 19:00:00+00:00,0.0
2024-08-13 13:00:00+00:00,0.0
2024-08-13 14:00:00+00:00,0.0
2024-08-13 15:00:00+00:00,0.0
2024-08-13 16:00:00+00:00,0.0
2024-08-13 17:00:00+00:00,0.0
2024-08-13 18:00:00+00:00,0.0
2024-08-13 19:00:00+00:00,0.0
2024-08-14 13:00:00+00:00,0.0
2024-08-14 14:00:00+00:00,0.0
2024-08-14 15:00:00+00:00,0.0
2024-08-14 16:00:00+00:00,0.0
2024-08-14 17:00:00+00:00,0.0
2024-08-14 18:00:00+00:00,0.0
2024-08-14 19:00:00+00:00,0.0
2024-08-15 13:00:00+00:00,0.0
2024-08-15 14:00:00+00:00,0.0
2024-08-15 15:00:00+00:00,0.0
2024-08-15 16:00:00+00:00,0.0
2024-08-15 17:00:00+00:00,0.0
2024-08-15 18:00:00+00:00,0.0
2024-08-15 19:00:00+00:00,0.0
2024-08-16 13:00:00+00:00,0.0
2024-08-16 14:00:00+00:00,0.0
2024-08-16 15:00:00+00:00,0.0
2024-08-16 16:00:00+00:00,0.0
2024-08-16 17:00:00+00:00,0.0
2024-08-16 18:00:00+00:00,0.0
2024-08-16 19:00:00+00:00,0.0
2024-08-19 13:00:00+00:00,0.0
2024-08-19 14:00:00+00:00,0.0
2024-08-19 15:00:00+00:00,0.0
2024-08-19 16:00:00+00:00,0.0
2024-08-19 17:00:00+00:00,0.0
2024-08-19 18:00:00+00:00,0.0
2024-08-19 19:00:00+00:00,0.0
2024-08-20 13:00:00+00:00,0.0
2024-08-20 14:00:00+00:00,0.0
2024-08-20 15:00:00+00:00,0.0
2024-08-20 16:00:00+00:00,0.0
2024-08-20 17:00:00+00:00,0.0
2024-08-20 18:00:00+00:00,0.0
2024-08-20 19:00:00+00:00,0.0
2024-08-21 13:00:00+00:00,0.0
2024-08-21 14:00:00+00:00,0.0
2024-08-21 15:00:00+00:00,0.0
2024-08-21 16:00:00+00:00,0.0
2024-08-21 17:00:00+00:00,0.0
2024-08-21 18:00:00+00:00,0.0
2024-08-21 19:00:00+00:00,0.0
2024-08-22 13:00:00+00:00,0.0
2024-08-22 14:00:00+00:00,0.0
2024-08-22 15:00:00+00:00,0.0
2024-08-22 16:00:00+00:00,0.0
2024-08-22 17:00:00+00:00,0.0
2024-08-22 18:00:00+00:00,0.0
2024-08-22 19:00:00+00:00,0.0
2024-08-23 13:00:00+00:00,0.0
2024-08-23 14:00:00+00:00,0.0
2024-08-23 15:00:00+00:00,0.0
2024-08-23 16:00:00+00:00,0.0
2024-08-23 17:00:00+00:00,0.0
2024-08-23 18:00:00+00:00,0.0
2024-08-23 19:00:00+00:00,0.0
2024-08-26 13:00:00+00:00,0.0
2024-08-26 14:00:00+00:00,0.0
2024-08-26 15:00:00+00:00,0.0
2024-08-26 16:00:00+00:00,0.0
2024-08-26 17:00:00+00:00,0.0
2024-08-26 18:00:00+00:00,0.0
2024-08-26 19:00:00+00:00,0.0
2024-08-27 13:00:00+00:00,0.0
2024-08-27 14:00:00+00:00,0.0
2024-08-27 15:00:00+00:00,0.0
2024-08-27 16:00:00+00:00,0.0
2024-08-27 17:00:00+00:00,0.0
2024-08-27 18:00:00+00:00,0.0
2024-08-27 19:00:00+00:00,0.0
2024-08-28 13:00:00+00:00,0.0
2024-08-28 14:00:00+00:00,0.0
2024-08-28 15:00:00+00:00,0.0
2024-08-28 16:00:00+00:00,0.0
2024-08-28 17:00:00+00:00,0.0
2024-08-28 18:00:00+00:00,0.0
2024-08-28 19:00:00+00:00,0.0
2024-08-29 13:00:00+00:00,0.0
2024-08-29 14:00:00+00:00,0.0
2024-08-29 15:00:00+00:00,0.0
2024-08-29 16:00:00+00:00,0.0
2024-08-29 17:00:00+00:00,0.0
2024-08-29 18:00:00+00:00,0.0
2024-08-29 19:00:00+00:00,0.0
2024-08-30 13:00:00+00:00,0.0
2024-08-30 14:00:00+00:00,0.0
2024-08-30 15:00:00+00:00,0.0
2024-08-30 16:00:00+00:00,0.0
2024-08-30 17:00:00+00:00,0.0
2024-08-30 18:00:00+00:00,0.0
2024-08-30 19:00:00+00:00,0.0
2024-09-03 13:00:00+00:00,0.0
2024-09-03 14:00:00+00:00,0.0
2024-09-03 15:00:00+00:00,0.0
2024-09-03 16:00:00+00:00,0.0
2024-09-03 17:00:00+00:00,0.0
2024-09-03 18:00:00+00:00,0.0
2024-09-03 19:00:00+00:00,0.0
2024-09-04 13:00:00+00:00,0.0
2024-09-04 14:00:00+00:00,0.0
2024-09-04 15:00:00+00:00,0.0
2024-09-04 16:00:00+00:00,0.0
2024-09-04 17:00:00+00:00,0.0
2024-09-04 18:00:00+00:00,0.0
2024-09-04 19:00:00+00:00,0.0
2024-09-05 13:00:00+00:00,0.0
2024-09-05 14:00:00+00:00,0.0
2024-09-05 15:00:00+00:00,0.0
2024-09-05 16:00:00+00:00,0.0
2024-09-05 17:00:00+00:00,0.0
2024-09-05 18:00:00+00:00,0.0
2024-09-05 19:00:00+00:00,0.0
2024-09-06 13:00:00+00:00,0.0
2024-09-06 14:00:00+00:00,0.0
2024-09-06 15:00:00+00:00,0.0
2024-09-06 16:00:00+00:00,0.0
2024-09-06 17:00:00+00:00,0.0
2024-09-06 18:00:00+00:00,0.0
2024-09-06 19:00:00+00:00,0.0
2024-09-09 13:00:00+00:00,0.0
2024-09-09 14:00:00+00:00,0.0
2024-09-09 15:00:00+00:00,0.0
2024-09-09 16:00:00+00:00,0.0
2024-09-09 17:00:00+00:00,0.0
2024-09-09 18:00:00+00:00,0.0
2024-09-09 19:00:00+00:00,0.0
2024-09-10 13:00:00+00:00,0.0
2024-09-10 14:00:00+00:00,0.0
2024-09-10 15:00:00+00:00,0.0
2024-09-10 16:00:00+00:00,0.0
2024-09-10 17:00:00+00:00,0.0
2024-09-10 18:00:00+00:00,0.0
2024-09-10 19:00:00+00:00,0.0
2024-09-11 13:00:00+00:00,0.0
2024-09-11 14:00:00+00:00,0.0
2024-09-11 15:00:00+00:00,0.0
2024-09-11 16:00:00+00:00,0.0
2024-09-11 17:00:00+00:00,0.0
2024-09-11 18:00:00+00:00,0.0
2024-09-11 19:00:00+00:00,0.0
2024-09-12 13:00:00+00:00,0.0
2024-09-12 14:00:00+00:00,0.0
2024-09-12 15:00:00+00:00,0.0
2024-09-12 16:00:00+00:00,0.0
2024-09-12 17:00:00+00:00,0.0
2024-09-12 18:00:00+00:00,0.0
2024-09-12 19:00:00+00:00,0.0
2024-09-13 13:00:00+00:00,0.0
2024-09-13 14:00:00+00:00,0.0
2024-09-13 15:00:00+00:00,0.0
2024-09-13 16:00:00+00:00,0.0
2024-09-13 17:00:00+00:00,0.0
2024-09-13 18:00:00+00:00,0.0
2024-09-13 19:00:00+00:00,0.0
2024-09-16 13:00:00+00:00,0.0
2024-09-16 14:00:00+00:00,0.0
2024-09-16 15:00:00+00:00,0.0
2024-09-16 16:00:00+00:00,0.0
2024-09-16 17:00:00+00:00,0.0
2024-09-16 18:00:00+00:00,0.0
2024-09-16 19:00:00+00:00,0.0
2024-09-17 13:00:00+00:00,0.0
2024-09-17 14:00:00+00:00,0.0
2024-09-17 15:00:00+00:00,0.0
2024-09-17 16:00:00+00:00,0.0
2024-09-17 17:00:00+00:00,0.0
2024-09-17 18:00:00+00:00,0.0
2024-09-17 19:00:00+00:00,0.0
2024-09-18 13:00:00+00:00,0.0
2024-09-18 14:00:00+00:00,0.0
2024-09-18 15:00:00+00:00,0.0
2024-09-18 16:00:00+00:00,0.0
2024-09-18 17:00:00+00:00,0.0
2024-09-18 18:00:00+00:00,0.0
2024-09-18 19:00:00+00:00,0.0
2024-09-19 13:00:00+00:00,0.0
2024-09-19 14:00:00+00:00,0.0
2024-09-19 15:00:00+00:00,0.0
2024-09-19 16:00:00+00:00,0.0
2024-09-19 17:00:00+00:00,0.0
2024-09-19 18:00:00+00:00,0.0
2024-09-19 19:00:00+00:00,0.0
2024-09-20 13:00:00+00:00,0.0
2024-09-20 14:00:00+00:00,0.0
2024-09-20 15:00:00+00:00,0.0
2024-09-20 16:00:00+00:00,0.0
2024-09-20 17:00:00+00:00,0.0
2024-09-20 18:00:00+00:00,0.0
2024-09-20 19:00:00+00:00,0.0
2024-09-23 13:00:00+00:00,0.0
2024-09-23 14:00:00+00:00,0.0
2024-09-23 15:00:00+00:00,0.0
2024-09-23 16:00:00+00:00,0.0
2024-09-23 17:00:00+00:00,0.0
2024-09-23 18:00:00+00:00,0.0
2024-09-23 19:00:00+00:00,0.0
2024-09-24 13:00:00+00:00,0.0
2024-09-24 14:00:00+00:00,0.0
2024-09-24 15:00:00+00:00,0.0
2024-09-24 16:00:00+00:00,0.0
2024-09-24 17:00:00+00:00,0.0
2024-09-24 18:00:00+00:00,0.0
2024-09-24 19:00:00+00:00,0.0
2024-09-25 13:00:00+00:00,0.0
2024-09-25 14:00:00+00:00,0.0
2024-09-25 15:00:00+00:00,0.0
2024-09-25 16:00:00+00:00,0.0
2024-09-25 17:00:00+00:00,0.0
2024-09-25 18:00:00+00:00,0.0
2024-09-25 19:00:00+00:00,0.0
2024-09-26 13:00:00+00:00,0.0
2024-09-26 14:00:00+00:00,0.0
2024-09-26 15:00:00+00:00,0.0
2024-09-26 16:00:00+00:00,0.0
2024-09-26 17:00:00+00:00,0.0
2024-09-26 18:00:00+00:00,0.0
2024-09-26 19:00:00+00:00,0.0
2024-09-27 13:00:00+00:00,0.0
2024-09-27 14:00:00+00:00,0.0
2024-09-27 15:00:00+00:00,0.0
2024-09-27 16:00:00+00:00,0.0
2024-09-27 17:00:00+00:00,0.0
2024-09-27 18:00:00+00:00,0.0
2024-09-27 19:00:00+00:00,0.0
2024-09-30 13:00:00+00:00,0.0
2024-09-30 14:00:00+00:00,0.0
2024-09-30 15:00:00+00:00,0.0
2024-09-30 16:00:00+00:00,0.0
2024-09-30 17:00:00+00:00,0.0
2024-09-30 18:00:00+00:00,0.0
2024-09-30 19:00:00+00:00,0.0
2024-10-01 13:00:00+00:00,0.0
2024-10-01 14:00:00+00:00,0.0
2024-10-01 15:00:00+00:00,0.0
2024-10-01 16:00:00+00:00,0.0
2024-10-01 17:00:00+00:00,0.0
2024-10-01 18:00:00+00:00,0.0
2024-10-01 19:00:00+00:00,0.0
2024-10-02 13:00:00+00:00,0.0
2024-10-02 14:00:00+00:00,0.0
2024-10-02 15:00:00+00:00,0.0
2024-10-02 16:00:00+00:00,0.0
2024-10-02 17:00:00+00:00,0.0
2024-10-02 18:00:00+00:00,0.0
2024-10-02 19:00:00+00:00,0.0
2024-10-03 13:00:00+00:00,0.0
2024-10-03 14:00:00+00:00,0.0
2024-10-03 15:00:00+00:00,0.0
2024-10-03 16:00:00+00:00,0.0
2024-10-03 17:00:00+00:00,0.0
2024-10-03 18:00:00+00:00,0.0
2024-10-03 19:00:00+00:00,0.0
2024-10-04 13:00:00+00:00,0.0
2024-10-04 14:00:00+00:00,0.0
2024-10-04 15:00:00+00:00,0.0
2024-10-04 16:00:00+00:00,0.0
2024-10-04 17:00:00+00:00,0.0
2024-10-04 18:00:00+00:00,0.0
2024-10-04 19:00:00+00:00,0.0
2024-10-07 13:00:00+00:00,0.0
2024-10-07 14:00:00+00:00,0.0
2024-10-07 15:00:00+00:00,0.0
2024-10-07 16:00:00+00:00,0.0
2024-10-07 17:00:00+00:00,0.0
2024-10-07 18:00:00+00:00,0.0
2024-10-07 19:00:00+00:00,0.0
2024-10-08 13:00:00+00:00,0.0
2024-10-08 14:00:00+00:00,0.0
2024-10-08 15:00:00+00:00,0.0
2024-10-08 16:00:00+00:00,0.0
2024-10-08 17:00:00+00:00,0.0
2024-10-08 18:00:00+00:00,0.0
2024-10-08 19:00:00+00:00,0.0
2024-10-09 13:00:00+00:00,0.0
2024-10-09 14:00:00+00:00,0.0
2024-10-09 15:00:00+00:00,0.0
2024-10-09 16:00:00+00:00,0.0
2024-10-09 17:00:00+00:00,0.0
2024-10-09 18:00:00+00:00,0.0
2024-10-09 19:00:00+00:00,0.0
2024-10-10 13:00:00+00:00,0.0
2024-10-10 14:00:00+00:00,0.0
2024-10-10 15:00:00+00:00,0.0
2024-10-10 16:00:00+00:00,0.0
2024-10-10 17:00:00+00:00,0.0
2024-10-10 18:00:00+00:00,0.0
2024-10-10 19:00:00+00:00,0.0
2024-10-11 13:00:00+00:00,0.0
2024-10-11 14:00:00+00:00,0.0
2024-10-11 15:00:00+00:00,0.0
2024-10-11 16:00:00+00:00,0.0
2024-10-11 17:00:00+00:00,0.0
2024-10-11 18:00:00+00:00,0.0
2024-10-11 19:00:00+00:00,0.0
2024-10-14 13:00:00+00:00,0.0
2024-10-14 14:00:00+00:00,0.0
2024-10-14 15:00:00+00:00,0.0
2024-10-14 16:00:00+00:00,0.0
2024-10-14 17:00:00+00:00,0.0
2024-10-14 18:00:00+00:00,0.0
2024-10-14 19:00:00+00:00,0.0
2024-10-15 13:00:00+00:00,0.0
2024-10-15 14:00:00+00:00,0.0
2024-10-15 15:00:00+00:00,0.0
2024-10-15 16:00:00+00:00,0.0
2024-10-15 17:00:00+00:00,0.0
2024-10-15 18:00:00+00:00,0.0
2024-10-15 19:00:00+00:00,0.0
2024-10-16 13:00:00+00:00,0.0
2024-10-16 14:00:00+00:00,0.0
2024-10-16 15:00:00+00:00,0.0
2024-10-16 16:00:00+00:00,0.0
2024-10-16 17:00:00+00:00,0.0
2024-10-16 18:00:00+00:00,0.0
2024-10-16 19:00:00+00:00,0.0
2024-10-17 13:00:00+00:00,0.0
2024-10-17 14:00:00+00:00,0.0
2024-10-17 15:00:00+00:00,0.0
2024-10-17 16:00:00+00:00,0.0
2024-10-17 17:00:00+00:00,0.0
2024-10-17 18:00:00+00:00,0.0
2024-10-17 19:00:00+00:00,0.0
2024-10-18 13:00:00+00:00,0.0
2024-10-18 14:00:00+00:00,0.0
2024-10-18 15:00:00+00:00,0.0
2024-10-18 16:00:00+00:00,0.0
2024-10-18 17:00:00+00:00,0.0
2024-10-18 18:00:00+00:00,0.0
2024-10-18 19:00:00+00:00,0.0
2024-10-21 13:00:00+00:00,0.0
2024-10-21 14:00:00+00:00,0.0
2024-10-21 15:00:00+00:00,0.0
2024-10-21 16:00:00+00:00,0.0
2024-10-21 17:00:00+00:00,0.0
2024-10-21 18:00:00+00:00,0.0
2024-10-21 19:00:00+00:00,0.0
2024-10-22 13:00:00+00:00,0.0
2024-10-22 14:00:00+00:00,0.0
2024-10-22 15:00:00+00:00,0.0
2024-10-22 16:00:00+00:00,0.0
2024-10-22 17:00:00+00:00,0.0
2024-10-22 18:00:00+00:00,0.0
2024-10-22 19:00:00+00:00,0.0
2024-10-23 13:00:00+00:00,0.0
2024-10-23 14:00:00+00:00,0.0
2024-10-23 15:00:00+00:00,0.0
2024-10-23 16:00:00+00:00,0.0
2024-10-23 17:00:00+00:00,0.0
2024-10-23 18:00:00+00:00,0.0
2024-10-23 19:00:00+00:00,0.0
2024-10-24 13:00:00+00:00,0.0
2024-10-24 14:00:00+00:00,0.0
2024-10-24 15:00:00+00:00,0.0
2024-10-24 16:00:00+00:00,0.0
2024-10-24 17:00:00+00:00,0.0
2024-10-24 18:00:00+00:00,0.0
2024-10-24 19:00:00+00:00,0.0
2024-10-25 13:00:00+00:00,0.0
2024-10-25 14:00:00+00:00,0.0
2024-10-25 15:00:00+00:00,0.0
2024-10-25 16:00:00+00:00,0.0
2024-10-25 17:00:00+00:00,0.0
2024-10-25 18:00:00+00:00,0.0
2024-10-25 19:00:00+00:00,0.0
2024-10-28 13:00:00+00:00,0.0
2024-10-28 14:00:00+00:00,0.0
2024-10-28 15:00:00+00:00,0.0
2024-10-28 16:00:00+00:00,0.0
2024-10-28 17:00:00+00:00,0.0
2024-10-28 18:00:00+00:00,0.0
2024-10-28 19:00:00+00:00,0.0
2024-10-29 13:00:00+00:00,0.0
2024-10-29 14:00:00+00:00,0.0
2024-10-29 15:00:00+00:00,0.0
2024-10-29 16:00:00+00:00,0.0
2024-10-29 17:00:00+00:00,0.0
2024-10-29 18:00:00+00:00,0.0
2024-10-29 19:00:00+00:00,0.0
2024-10-30 13:00:00+00:00,0.0
2024-10-30 14:00:00+00:00,0.0
2024-10-30 15:00:00+00:00,0.0
2024-10-30 16:00:00+00:00,0.0
2024-10-30 17:00:00+00:00,0.0
2024-10-30 18:00:00+00:00,0.0
2024-10-30 19:00:00+00:00,0.0
2024-10-31 13:00:00+00:00,0.0
2024-10-31 14:00:00+00:00,0.0
2024-10-31 15:00:00+00:00,0.0
2024-10-31 16:00:00+00:00,0.0
2024-10-31 17:00:00+00:00,0.0
2024-10-31 18:00:00+00:00,0.0
2024-10-31 19:00:00+00:00,0.0
2024-11-01 13:00:00+00:00,0.0
2024-11-01 14:00:00+00:00,0.0
2024-11-01 15:00:00+00:00,0.0
2024-11-01 16:00:00+00:00,0.0
2024-11-01 17:00:00+00:00,0.0
2024-11-01 18:00:00+00:00,0.0
2024-11-01 19:00:00+00:00,0.0
2024-11-04 14:00:00+00:00,0.0
2024-11-04 15:00:00+00:00,0.0
2024-11-04 16:00:00+00:00,0.0
2024-11-04 17:00:00+00:00,0.0
2024-11-04 18:00:00+00:00,0.0
2024-11-04 19:00:00+00:00,0.0
2024-11-04 20:00:00+00:00,0.0
2024-11-05 14:00:00+00:00,0.0
2024-11-05 15:00:00+00:00,0.0
2024-11-05 16:00:00+00:00,0.0
2024-11-05 17:00:00+00:00,0.0
2024-11-05 18:00:00+00:00,0.0
2024-11-05 19:00:00+00:00,0.0
2024-11-05 20:00:00+00:00,0.0
2024-11-06 14:00:00+00:00,0.0
2024-11-06 15:00:00+00:00,0.0
2024-11-06 16:00:00+00:00,0.0
2024-11-06 17:00:00+00:00,0.0
2024-11-06 18:00:00+00:00,0.0
2024-11-06 19:00:00+00:00,0.0
2024-11-06 20:00:00+00:00,0.0
2024-11-07 14:00:00+00:00,0.0
2024-11-07 15:00:00+00:00,0.0
2024-11-07 16:00:00+00:00,0.0
2024-11-07 17:00:00+00:00,0.0
2024-11-07 18:00:00+00:00,0.0
2024-11-07 19:00:00+00:00,0.0
2024-11-07 20:00:00+00:00,0.0
2024-11-08 14:00:00+00:00,0.0
2024-11-08 15:00:00+00:00,0.0
2024-11-08 16:00:00+00:00,0.0
2024-11-08 17:00:00+00:00,0.0
2024-11-08 18:00:00+00:00,0.0
2024-11-08 19:00:00+00:00,0.0
2024-11-08 20:00:00+00:00,0.0
2024-11-11 14:00:00+00:00,0.0
2024-11-11 15:00:00+00:00,0.0
2024-11-11 16:00:00+00:00,0.0
2024-11-11 17:00:00+00:00,0.0
2024-11-11 18:00:00+00:00,0.0
2024-11-11 19:00:00+00:00,0.0
2024-11-11 20:00:00+00:00,0.0
2024-11-12 14:00:00+00:00,0.0
2024-11-12 15:00:00+00:00,0.0
2024-11-12 16:00:00+00:00,0.0
2024-11-12 17:00:00+00:00,0.0
2024-11-12 18:00:00+00:00,0.0
2024-11-12 19:00:00+00:00,0.0
2024-11-12 20:00:00+00:00,0.0
2024-11-13 14:00:00+00:00,0.0
2024-11-13 15:00:00+00:00,0.0
2024-11-13 16:00:00+00:00,0.0
2024-11-13 17:00:00+00:00,0.0
2024-11-13 18:00:00+00:00,0.0
2024-11-13 19:00:00+00:00,0.0
2024-11-13 20:00:00+00:00,0.0
2024-11-14 14:00:00+00:00,0.0
2024-11-14 15:00:00+00:00,0.0
2024-11-14 16:00:00+00:00,0.0
2024-11-14 17:00:00+00:00,0.0
2024-11-14 18:00:00+00:00,0.0
2024-11-14 19:00:00+00:00,0.0
2024-11-14 20:00:00+00:00,0.0
2024-11-15 14:00:00+00:00,0.0
2024-11-15 15:00:00+00:00,0.0
2024-11-15 16:00:00+00:00,0.0
2024-11-15 17:00:00+00:00,0.0
2024-11-15 18:00:00+00:00,0.0
2024-11-15 19:00:00+00:00,0.0
2024-11-15 20:00:00+00:00,0.0
2024-11-18 14:00:00+00:00,0.0
2024-11-18 15:00:00+00:00,0.0
2024-11-18 16:00:00+00:00,0.0
2024-11-18 17:00:00+00:00,0.0
2024-11-18 18:00:00+00:00,0.0
2024-11-18 19:00:00+00:00,0.0
2024-11-18 20:00:00+00:00,0.0
2024-11-19 14:00:00+00:00,0.0
2024-11-19 15:00:00+00:00,0.0
2024-11-19 16:00:00+00:00,0.0
2024-11-19 17:00:00+00:00,0.0
2024-11-19 18:00:00+00:00,0.0
2024-11-19 19:00:00+00:00,0.0
2024-11-19 20:00:00+00:00,0.0
2024-11-20 14:00:00+00:00,0.0
2024-11-20 15:00:00+00:00,0.0
2024-11-20 16:00:00+00:00,0.0
2024-11-20 17:00:00+00:00,0.0
2024-11-20 18:00:00+00:00,0.0
2024-11-20 19:00:00+00:00,0.0
2024-11-20 20:00:00+00:00,0.0
2024-11-21 14:00:00+00:00,0.0
2024-11-21 15:00:00+00:00,0.0
2024-11-21 16:00:00+00:00,0.0
2024-11-21 17:00:00+00:00,0.0
2024-11-21 18:00:00+00:00,0.0
2024-11-21 19:00:00+00:00,0.0
2024-11-21 20:00:00+00:00,0.0
2024-11-22 14:00:00+00:00,0.0
2024-11-22 15:00:00+00:00,0.0
2024-11-22 16:00:00+00:00,0.0
2024-11-22 17:00:00+00:00,0.0
2024-11-22 18:00:00+00:00,0.0
2024-11-22 19:00:00+00:00,0.0
2024-11-22 20:00:00+00:00,0.0
2024-11-25 14:00:00+00:00,0.0
2024-11-25 15:00:00+00:00,0.0
2024-11-25 16:00:00+00:00,0.0
2024-11-25 17:00:00+00:00,0.0
2024-11-25 18:00:00+00:00,0.0
2024-11-25 19:00:00+00:00,0.0
2024-11-25 20:00:00+00:00,0.0
2024-11-26 14:00:00+00:00,0.0
2024-11-26 15:00:00+00:00,0.0
2024-11-26 16:00:00+00:00,0.0
2024-11-26 17:00:00+00:00,0.0
2024-11-26 18:00:00+00:00,0.0
2024-11-26 19:00:00+00:00,0.0
2024-11-26 20:00:00+00:00,0.0
2024-11-27 14:00:00+00:00,0.0
2024-11-27 15:00:00+00:00,0.0
2024-11-27 16:00:00+00:00,0.0
2024-11-27 17:00:00+00:00,0.0
2024-11-27 18:00:00+00:00,0.0
2024-11-27 19:00:00+00:00,0.0
2024-11-27 20:00:00+00:00,0.0
2024-11-29 14:00:00+00:00,0.0
2024-11-29 15:00:00+00:00,0.0
2024-11-29 16:00:00+00:00,0.0
2024-12-02 14:00:00+00:00,0.0
2024-12-02 15:00:00+00:00,50.33045909569699
2024-12-02 16:00:00+00:00,78.27574673413835
2024-12-02 17:00:00+00:00,47.07000726135415
2024-12-02 18:00:00+00:00,32.59032977008309
2024-12-02 19:00:00+00:00,40.17081735547451
2024-12-02 20:00:00+00:00,62.297343313112734
2024-12-03 14:00:00+00:00,53.10724578397177
2024-12-03 15:00:00+00:00,29.618349181722117
2024-12-03 16:00:00+00:00,13.593387975356798
2024-12-03 17:00:00+00:00,-17.59368154028727
2024-12-03 18:00:00+00:00,-47.70596893006085
2024-12-03 19:00:00+00:00,-14.015284443906104
2024-12-03 20:00:00+00:00,-14.750191634020588
2024-12-04 14:00:00+00:00,103.36317673366011
2024-12-04 15:00:00+00:00,71.00602119204629
2024-12-04 16:00:00+00:00,89.7831630513705
2024-12-04 17:00:00+00:00,89.4238052806885
2024-12-04 18:00:00+00:00,85.1793281016932
2024-12-04 19:00:00+00:00,65.20566966383649
2024-12-04 20:00:00+00:00,55.81090995229492
2024-12-05 14:00:00+00:00,-35.63737079656059
2024-12-05 15:00:00+00:00,2.147603148247768
2024-12-05 16:00:00+00:00,7.749296017490627
2024-12-05 17:00:00+00:00,-2.8536096056083533
2024-12-05 18:00:00+00:00,40.968333092911394
2024-12-05 19:00:00+00:00,10.101506585895397
2024-12-05 20:00:00+00:00,8.670727724973469
2024-12-06 14:00:00+00:00,176.34692465616823
2024-12-06 15:00:00+00:00,132.78788802873078
2024-12-06 16:00:00+00:00,123.58761875665778
2024-12-06 17:00:00+00:00,125.19829198944979
2024-12-06 18:00:00+00:00,108.17561926714683
2024-12-06 19:00:00+00:00,106.01888788115211
2024-12-06 20:00:00+00:00,109.10439966795789
2024-12-09 14:00:00+00:00,129.73672533956514
2024-12-09 15:00:00+00:00,122.00864743705938
2024-12-09 16:00:00+00:00,102.75535154779826
2024-12-09 17:00:00+00:00,89.31948156273836
2024-12-09 18:00:00+00:00,111.87862880509533
2024-12-09 19:00:00+00:00,98.72681208285307
2024-12-09 20:00:00+00:00,160.8570718533599
2024-12-10 14:00:00+00:00,92.91857387528832
2024-12-10 15:00:00+00:00,116.89620165755517
2024-12-10 16:00:00+00:00,134.7846445447568
2024-12-10 17:00:00+00:00,153.28765042388034
2024-12-10 18:00:00+00:00,153.22420287340674
2024-12-10 19:00:00+00:00,187.3681182761958
2024-12-10 20:00:00+00:00,192.90432729778334
2024-12-11 14:00:00+00:00,189.74342312641207
2024-12-11 15:00:00+00:00,218.05911261514115
2024-12-11 16:00:00+00:00,200.42516339044747
2024-12-11 17:00:00+00:00,201.92628609339522
2024-12-11 18:00:00+00:00,164.31077966962403
2024-12-11 19:00:00+00:00,154.07351994014766
2024-12-11 20:00:00+00:00,153.1759733159569
2024-12-12 14:00:00+00:00,172.04114492815478
2024-12-12 15:00:00+00:00,136.2751343572971
2024-12-12 16:00:00+00:00,121.3388314964555
2024-12-12 17:00:00+00:00,106.50450843679292
2024-12-12 18:00:00+00:00,130.72635452713476
2024-12-12 19:00:00+00:00,138.48319488696498
2024-12-12 20:00:00+00:00,146.96006448845418
2024-12-13 14:00:00+00:00,178.61647098522818
2024-12-13 15:00:00+00:00,171.13909973109202
2024-12-13 16:00:00+00:00,142.428416941044
2024-12-13 17:00:00+00:00,124.06863442582895
2024-12-13 18:00:00+00:00,117.05559054484964
2024-12-13 19:00:00+00:00,123.42207662876105
2024-12-13 20:00:00+00:00,125.21067184565663
2024-12-16 14:00:00+00:00,131.56601640825482
2024-12-16 15:00:00+00:00,159.64752308805984
2024-12-16 16:00:00+00:00,156.25110262360775
2024-12-16 17:00:00+00:00,198.81538702849357
2024-12-16 18:00:00+00:00,197.654590018213
2024-12-16 19:00:00+00:00,190.60549448736418
2024-12-16 20:00:00+00:00,178.46495716595263
2024-12-17 14:00:00+00:00,318.3250243815136
2024-12-17 15:00:00+00:00,298.1982538546589
2024-12-17 16:00:00+00:00,293.50020746991567
2024-12-17 17:00:00+00:00,271.7880977230493
2024-12-17 18:00:00+00:00,276.4678932898747
2024-12-17 19:00:00+00:00,267.3498818182558
2024-12-17 20:00:00+00:00,258.9549998221064
2024-12-18 14:00:00+00:00,325.7989717520269
2024-12-18 15:00:00+00:00,322.25309318728586
2024-12-18 16:00:00+00:00,324.56937481170155
2024-12-18 17:00:00+00:00,323.26960391504895
2024-12-18 18:00:00+00:00,332.99424738121604
2024-12-18 19:00:00+00:00,350.6611575108136
2024-12-18 20:00:00+00:00,408.4722293327842
2024-12-19 14:00:00+00:00,370.99329368068356
2024-12-19 15:00:00+00:00,391.0807235683921
2024-12-19 16:00:00+00:00,408.26222862887334
2024-12-19 17:00:00+00:00,397.95160406630885
2024-12-19 18:00:00+00:00,414.668726469991
2024-12-19 19:00:00+00:00,422.0984665034244
2024-12-19 20:00:00+00:00,436.56859417718545
2024-12-20 14:00:00+00:00,389.4319906689201
2024-12-20 15:00:00+00:00,371.56227025054494
2024-12-20 16:00:00+00:00,355.4811642241542
2024-12-20 17:00:00+00:00,349.5897958794633
2024-12-20 18:00:00+00:00,359.10609932201766
2024-12-20 19:00:00+00:00,382.687561711431
2024-12-20 20:00:00+00:00,383.54497460254635
2024-12-23 14:00:00+00:00,369.6538263655174
2024-12-23 15:00:00+00:00,354.3308906871131
2024-12-23 16:00:00+00:00,365.36026571576826
2024-12-23 17:00:00+00:00,343.93968071582657
2024-12-23 18:00:00+00:00,350.79705164847763
2024-12-23 19:00:00+00:00,365.7248852230711
2024-12-23 20:00:00+00:00,340.1645535714088
2024-12-24 14:00:00+00:00,326.7922673806017
2024-12-24 15:00:00+00:00,326.0882492258933
2024-12-24 16:00:00+00:00,300.5153673859292
2024-12-26 14:00:00+00:00,299.2620409692481
2024-12-26 15:00:00+00:00,323.005349698809
2024-12-26 16:00:00+00:00,304.47049281429236
2024-12-26 17:00:00+00:00,321.8725562357876
2024-12-26 18:00:00+00:00,308.08220696537467
2024-12-26 19:00:00+00:00,314.2801775091409
2024-12-26 20:00:00+00:00,324.4266136669476
2024-12-27 14:00:00+00:00,291.84053705302756
2024-12-27 15:00:00+00:00,280.49450592846813
2024-12-27 16:00:00+00:00,300.6505595190127
2024-12-27 17:00:00+00:00,307.14000663755644
2024-12-27 18:00:00+00:00,308.4340444396362
2024-12-27 19:00:00+00:00,322.776428626503
2024-12-27 20:00:00+00:00,321.9768457698734
2024-12-30 14:00:00+00:00,344.11602177883117
2024-12-30 15:00:00+00:00,332.3944063101109
2024-12-30 16:00:00+00:00,316.891712503616
2024-12-30 17:00:00+00:00,330.04140264777794
2024-12-30 18:00:00+00:00,329.97340087036014
2024-12-30 19:00:00+00:00,331.93197067923336
2024-12-30 20:00:00+00:00,314.36322840352017
2024-12-31 14:00:00+00:00,258.59695575171895
2024-12-31 15:00:00+00:00,263.66373586641834
2024-12-31 16:00:00+00:00,280.2153340887405
2024-12-31 17:00:00+00:00,304.9599355530424
2024-12-31 18:00:00+00:00,248.75960789891855
2024-12-31 19:00:00+00:00,254.14955900194371
2024-12-31 20:00:00+00:00,250.81437392563012
2025-01-02 14:00:00+00:00,117.19184009144863
2025-01-02 15:00:00+00:00,137.34909321481598
2025-01-02 16:00:00+00:00,144.52256473796888
2025-01-02 17:00:00+00:00,155.37601796524345
2025-01-02 18:00:00+00:00,153.2519353752151
2025-01-02 19:00:00+00:00,130.8510928755766
2025-01-02 20:00:00+00:00,139.8647363112255
2025-01-03 14:00:00+00:00,60.73640744953633
2025-01-03 15:00:00+00:00,54.844597741223865
2025-01-03 16:00:00+00:00,70.31566641941762
2025-01-03 17:00:00+00:00,46.556572479999154
2025-01-03 18:00:00+00:00,35.73594391384661
2025-01-03 19:00:00+00:00,43.232317315816864
2025-01-03 20:00:00+00:00,51.506413750153285
2025-01-06 14:00:00+00:00,-35.49555807212816
2025-01-06 15:00:00+00:00,-31.3924399368151
2025-01-06 16:00:00+00:00,-6.589959234534611
2025-01-06 17:00:00+00:00,-6.853740903089479
2025-01-06 18:00:00+00:00,2.7494487509091634
2025-01-06 19:00:00+00:00,13.011487976656841
2025-01-06 20:00:00+00:00,21.746968153036466
2025-01-07 14:00:00+00:00,8.915074902819558
2025-01-07 15:00:00+00:00,-3.2000792822729682
2025-01-07 16:00:00+00:00,-44.564111870255225
2025-01-07 17:00:00+00:00,-49.71659006378157
2025-01-07 18:00:00+00:00,-40.422260742451925
2025-01-07 19:00:00+00:00,-19.03050573114764
2025-01-07 20:00:00+00:00,-11.165666104605828
2025-01-08 14:00:00+00:00,-69.05541920487136
2025-01-08 15:00:00+00:00,-44.503232261484555
2025-01-08 16:00:00+00:00,-37.73432707540144
2025-01-08 17:00:00+00:00,-34.305919361777356
2025-01-08 18:00:00+00:00,-29.484497393222675
2025-01-08 19:00:00+00:00,-30.96462474633169
2025-01-08 20:00:00+00:00,-40.91589153821475
2025-01-10 14:00:00+00:00,-197.47855493931212
2025-01-10 15:00:00+00:00,-106.72574270487344
2025-01-10 16:00:00+00:00,-159.2865473871977
2025-01-10 17:00:00+00:00,-150.62433072485538
2025-01-10 18:00:00+00:00,-196.99881804571032
2025-01-10 19:00:00+00:00,-169.82007311624884
2025-01-10 20:00:00+00:00,-178.53068416304296
2025-01-13 14:00:00+00:00,-200.57853164498218
2025-01-13 15:00:00+00:00,-237.91398544949502
2025-01-13 16:00:00+00:00,-257.03412226224265
2025-01-13 17:00:00+00:00,-309.1370112975662
2025-01-13 18:00:00+00:00,-296.1557080057417
2025-01-13 19:00:00+00:00,-255.14975441287208
2025-01-13 20:00:00+00:00,-245.0565434030804
2025-01-14 14:00:00+00:00,-271.5982284500666
2025-01-14 15:00:00+00:00,-285.48158193350093
2025-01-14 16:00:00+00:00,-290.78312246452435
2025-01-14 17:00:00+00:00,-302.1365697461431
2025-01-14 18:00:00+00:00,-299.26688201606026
2025-01-14 19:00:00+00:00,-285.51413639951
2025-01-14 20:00:00+00:00,-307.1828202125363
2025-01-15 14:00:00+00:00,-235.739190944569
2025-01-15 15:00:00+00:00,-234.8256332334268
2025-01-15 16:00:00+00:00,-239.07619747912406
2025-01-15 17:00:00+00:00,-253.50189165317832
2025-01-15 18:00:00+00:00,-279.24026129373954
2025-01-15 19:00:00+00:00,-286.6675696292514
2025-01-15 20:00:00+00:00,-310.6074057430519
2025-01-16 14:00:00+00:00,-318.57343392900634
2025-01-16 15:00:00+00:00,-332.4029846570238
2025-01-16 16:00:00+00:00,-322.5951563451445
2025-01-16 17:00:00+00:00,-311.91606555800763
2025-01-16 18:00:00+00:00,-308.3284586886839
2025-01-16 19:00:00+00:00,-322.06243502358853
2025-01-16 20:00:00+00:00,-343.7213981484979
2025-01-17 14:00:00+00:00,-268.75955427381126
2025-01-17 15:00:00+00:00,-252.71937278197507
2025-01-17 16:00:00+00:00,-254.24779461997318
2025-01-17 17:00:00+00:00,-229.19631803445077
2025-01-17 18:00:00+00:00,-206.6368983045327
2025-01-17 19:00:00+00:00,-210.61969286192405
2025-01-17 20:00:00+00:00,-228.6378649378273
2025-01-21 14:00:00+00:00,-163.25829873163636
2025-01-21 15:00:00+00:00,-216.61224342452147
2025-01-21 16:00:00+00:00,-191.2357891057788
2025-01-21 17:00:00+00:00,-201.5568578988356
2025-01-21 18:00:00+00:00,-173.41239717343348
2025-01-21 19:00:00+00:00,-182.8483089597566
2025-01-21 20:00:00+00:00,-226.94206894115985
2025-01-22 14:00:00+00:00,-224.36749759649396
2025-01-22 15:00:00+00:00,-233.0834600132195
2025-01-22 16:00:00+00:00,-267.35693572865
2025-01-22 17:00:00+00:00,-257.62273075923235
2025-01-22 18:00:00+00:00,-218.31027541644045
2025-01-22 19:00:00+00:00,-229.7456086390485
2025-01-22 20:00:00+00:00,-187.33018790609285
2025-01-23 14:00:00+00:00,-211.01198066183895
2025-01-23 15:00:00+00:00,-110.9159651507685
2025-01-23 16:00:00+00:00,-93.657374393141
2025-01-23 17:00:00+00:00,-128.1833045338607
2025-01-23 18:00:00+00:00,-106.72663858565704
2025-01-23 19:00:00+00:00,-75.74326928242576
2025-01-23 20:00:00+00:00,-83.54106910153781
2025-01-24 14:00:00+00:00,12.156338797360021
2025-01-24 15:00:00+00:00,26.411880664596314
2025-01-24 16:00:00+00:00,36.575876880035096
2025-01-24 17:00:00+00:00,40.40743186232146
2025-01-24 18:00:00+00:00,25.567254068580688
2025-01-24 19:00:00+00:00,6.978589732001225
2025-01-24 20:00:00+00:00,22.886302277338107
2025-01-27 14:00:00+00:00,-63.513055436174426
2025-01-27 15:00:00+00:00,-9.308565560506594
2025-01-27 16:00:00+00:00,47.76669180994767
2025-01-27 17:00:00+00:00,49.46815598212721
2025-01-27 18:00:00+00:00,32.303182317061655
2025-01-27 19:00:00+00:00,26.205702143793886
2025-01-27 20:00:00+00:00,42.21021854524541
2025-01-28 14:00:00+00:00,101.9278231606901
2025-01-28 15:00:00+00:00,118.7169769133096
2025-01-28 16:00:00+00:00,124.59041139375626
2025-01-28 17:00:00+00:00,108.95471294718428
2025-01-28 18:00:00+00:00,84.69799486038622
2025-01-28 19:00:00+00:00,72.57831329782188
2025-01-28 20:00:00+00:00,84.29687285075258
2025-01-29 14:00:00+00:00,121.14943714199879
2025-01-29 15:00:00+00:00,120.36375430765635
2025-01-29 16:00:00+00:00,134.15906764765228
2025-01-29 17:00:00+00:00,136.83549379517046
2025-01-29 18:00:00+00:00,136.67320609140134
2025-01-29 19:00:00+00:00,111.50045198507146
2025-01-29 20:00:00+00:00,109.42591670184908
2025-01-30 14:00:00+00:00,27.214111171656086
2025-01-30 15:00:00+00:00,3.5099888800709067
2025-01-30 16:00:00+00:00,72.95156205859453
2025-01-30 17:00:00+00:00,48.85632170984989
2025-01-30 18:00:00+00:00,66.18312568236395
2025-01-30 19:00:00+00:00,66.31718956242449
2025-01-30 20:00:00+00:00,65.99180937521724
2025-01-31 14:00:00+00:00,231.62577507794373
2025-01-31 15:00:00+00:00,221.8157386527872
2025-01-31 16:00:00+00:00,257.4011432930436
2025-01-31 17:00:00+00:00,255.5145696228437
2025-01-31 18:00:00+00:00,273.2666043684776
2025-01-31 19:00:00+00:00,270.35801881890336
2025-01-31 20:00:00+00:00,254.84177015754162
2025-02-03 14:00:00+00:00,273.66192820477505
2025-02-03 15:00:00+00:00,253.08882305284104
2025-02-03 16:00:00+00:00,269.2616470638818
2025-02-03 17:00:00+00:00,248.82702377517256
2025-02-03 18:00:00+00:00,284.0559087815598
2025-02-03 19:00:00+00:00,268.22880844358707
2025-02-03 20:00:00+00:00,273.26930440935115
2025-02-04 14:00:00+00:00,253.44484996231546
2025-02-04 15:00:00+00:00,263.78661397154104
2025-02-04 16:00:00+00:00,278.89704610348457
2025-02-04 17:00:00+00:00,260.7664894099835
2025-02-04 18:00:00+00:00,266.8303638118431
2025-02-04 19:00:00+00:00,288.7946020657122
2025-02-04 20:00:00+00:00,294.8420123312602
2025-02-05 14:00:00+00:00,317.2028573416033
2025-02-05 15:00:00+00:00,290.8433841969335
2025-02-05 16:00:00+00:00,306.1611373814672
2025-02-05 17:00:00+00:00,303.52664434896
2025-02-05 18:00:00+00:00,287.50112615546476
2025-02-05 19:00:00+00:00,284.99222882806464
2025-02-05 20:00:00+00:00,276.6811908202221
2025-02-06 14:00:00+00:00,323.72428161665636
2025-02-06 15:00:00+00:00,318.92066225473616
2025-02-06 16:00:00+00:00,280.65408665808405
2025-02-06 17:00:00+00:00,275.88449516873237
2025-02-06 18:00:00+00:00,284.92591701541204
2025-02-06 19:00:00+00:00,243.9066018124904
2025-02-06 20:00:00+00:00,218.37767980259937
2025-02-07 14:00:00+00:00,185.20784998941684
2025-02-07 15:00:00+00:00,188.94490355882337
2025-02-07 16:00:00+00:00,189.30780292693748
2025-02-07 17:00:00+00:00,179.7559706377779
2025-02-07 18:00:00+00:00,193.09671094303044
2025-02-07 19:00:00+00:00,222.1330515988405
2025-02-07 20:00:00+00:00,211.98967135682278
2025-02-10 14:00:00+00:00,130.3285457799839
2025-02-10 15:00:00+00:00,118.38167539442706
2025-02-10 16:00:00+00:00,97.24781939927982
2025-02-10 17:00:00+00:00,97.77242703481994
2025-02-10 18:00:00+00:00,73.09472156981592
2025-02-10 19:00:00+00:00,47.93241169397752
2025-02-10 20:00:00+00:00,43.93042252402028
2025-02-11 14:00:00+00:00,-29.369515596609894
2025-02-11 15:00:00+00:00,-71.1593017609785
2025-02-11 16:00:00+00:00,-112.61133017438091
2025-02-11 17:00:00+00:00,-108.10151246527863
2025-02-11 18:00:00+00:00,-99.57366657600299
2025-02-11 19:00:00+00:00,-50.37417874422184
2025-02-11 20:00:00+00:00,-54.96922281214641
2025-02-12 14:00:00+00:00,-124.95012089474567
2025-02-12 15:00:00+00:00,-115.3559933697015
2025-02-12 16:00:00+00:00,-93.01170212898165
2025-02-12 17:00:00+00:00,-33.76104811203845
2025-02-12 18:00:00+00:00,31.51869794362061
2025-02-12 19:00:00+00:00,40.46033527966722
2025-02-12 20:00:00+00:00,38.80406206122412
2025-02-13 14:00:00+00:00,47.13757242545615
2025-02-13 15:00:00+00:00,49.13644512899903
2025-02-13 16:00:00+00:00,55.10625948160009
2025-02-13 17:00:00+00:00,65.97308571913342
2025-02-13 18:00:00+00:00,65.01036634658074
2025-02-13 19:00:00+00:00,63.18342209280444
2025-02-13 20:00:00+00:00,29.68378776774246
2025-02-14 14:00:00+00:00,-18.578586923607112
2025-02-14 15:00:00+00:00,-0.5034285666716514
2025-02-14 16:00:00+00:00,3.9931311273229966
2025-02-14 17:00:00+00:00,36.93616644628203
2025-02-14 18:00:00+00:00,43.82280761989465
2025-02-14 19:00:00+00:00,55.734742156308016
2025-02-14 20:00:00+00:00,90.36701756968739
2025-02-18 14:00:00+00:00,105.29596914190556
2025-02-18 15:00:00+00:00,90.45923162654225
2025-02-18 16:00:00+00:00,53.64295632909209
2025-02-18 17:00:00+00:00,16.67164769124181
2025-02-18 18:00:00+00:00,16.924756373655562
2025-02-18 19:00:00+00:00,13.877434896667623
2025-02-18 20:00:00+00:00,46.74401683446742
2025-02-19 14:00:00+00:00,-182.8261851888123
2025-02-19 15:00:00+00:00,-131.22361409578517
2025-02-19 16:00:00+00:00,-175.15634375968665
2025-02-19 17:00:00+00:00,-144.5618760926489
2025-02-19 18:00:00+00:00,-160.94548351096338
2025-02-19 19:00:00+00:00,-193.49368921366997
2025-02-19 20:00:00+00:00,-180.66821464862278
2025-02-20 14:00:00+00:00,-207.4927820088256
2025-02-20 15:00:00+00:00,-184.3727033614555
2025-02-20 16:00:00+00:00,-185.98911461921307
2025-02-20 17:00:00+00:00,-193.16334431156662
2025-02-20 18:00:00+00:00,-177.65711859883532
2025-02-20 19:00:00+00:00,-207.2950003831799
2025-02-20 20:00:00+00:00,-210.45909442167448
2025-02-21 14:00:00+00:00,-179.1434057776978
2025-02-21 15:00:00+00:00,-187.0232221301091
2025-02-21 16:00:00+00:00,-178.82065442142465
2025-02-21 17:00:00+00:00,-139.90507603021993
2025-02-21 18:00:00+00:00,-113.72151429636685
2025-02-21 19:00:00+00:00,-112.8159225073265
2025-02-21 20:00:00+00:00,-138.52899204524763
2025-02-24 14:00:00+00:00,-118.99297866977082
2025-02-24 15:00:00+00:00,-152.80267157751618
2025-02-24 16:00:00+00:00,-159.07581304824768
2025-02-24 17:00:00+00:00,-155.5193677018903
2025-02-24 18:00:00+00:00,-169.15070583120718
2025-02-24 19:00:00+00:00,-169.47227193342286
2025-02-24 20:00:00+00:00,-165.1679968580699
2025-02-25 14:00:00+00:00,-46.01133754148697
2025-02-25 15:00:00+00:00,-70.4283973157724
2025-02-25 16:00:00+00:00,-49.83007130394522
2025-02-25 17:00:00+00:00,-58.18438454490618
2025-02-25 18:00:00+00:00,-47.54626895185094
2025-02-25 19:00:00+00:00,-78.10063781054082
2025-02-25 20:00:00+00:00,-55.59927399220295
2025-02-26 14:00:00+00:00,-36.877099496389484
2025-02-26 15:00:00+00:00,-32.671410114019444
2025-02-26 16:00:00+00:00,-14.883136815208946
2025-02-26 17:00:00+00:00,9.723550002703579
2025-02-26 18:00:00+00:00,-3.4502184695624845
2025-02-26 19:00:00+00:00,-14.105503416154999
2025-02-26 20:00:00+00:00,-32.66088664078106
2025-02-27 14:00:00+00:00,-102.36046652171444
2025-02-27 15:00:00+00:00,-116.81829358201472
2025-02-27 16:00:00+00:00,-115.1939070088635
2025-02-27 17:00:00+00:00,-102.34042144375452
2025-02-27 18:00:00+00:00,-117.97006138115233
2025-02-27 19:00:00+00:00,-84.77695672435758
2025-02-27 20:00:00+00:00,-90.22697969302807
2025-02-28 14:00:00+00:00,223.093670210281
2025-02-28 15:00:00+00:00,231.34090488828267
2025-02-28 16:00:00+00:00,218.02830511493255
2025-02-28 17:00:00+00:00,173.9408100132938
2025-02-28 18:00:00+00:00,208.81707100600153
2025-02-28 19:00:00+00:00,215.59884577898973
2025-02-28 20:00:00+00:00,145.72706725317738
2025-03-03 14:00:00+00:00,357.1773152989421
2025-03-03 15:00:00+00:00,289.7544237951236
2025-03-03 16:00:00+00:00,198.582810191283
2025-03-03 17:00:00+00:00,375.46868996827834
2025-03-03 18:00:00+00:00,450.4919951081953
2025-03-03 19:00:00+00:00,488.269077677002
2025-03-03 20:00:00+00:00,473.33952396322246
2025-03-04 14:00:00+00:00,512.9631034701871
2025-03-04 15:00:00+00:00,461.68125067686145
2025-03-04 16:00:00+00:00,372.5999348840992
2025-03-04 17:00:00+00:00,353.9923350919136
2025-03-04 18:00:00+00:00,341.1118667770339
2025-03-04 19:00:00+00:00,317.793101094774
2025-03-04 20:00:00+00:00,369.92124591471907
2025-03-05 14:00:00+00:00,377.77831532182904
2025-03-05 15:00:00+00:00,398.78797001094836
2025-03-05 16:00:00+00:00,340.85783276635107
2025-03-05 17:00:00+00:00,339.1648668083829
2025-03-05 18:00:00+00:00,313.8361604145081
2025-03-05 19:00:00+00:00,289.2140297264812
2025-03-05 20:00:00+00:00,278.4444997302629
2025-03-06 14:00:00+00:00,303.1586185980519
2025-03-06 15:00:00+00:00,314.08950925277935
2025-03-06 16:00:00+00:00,305.7622225951546
2025-03-06 17:00:00+00:00,325.20342943791223
2025-03-06 18:00:00+00:00,306.68298243286154
2025-03-06 19:00:00+00:00,330.98737383084494
2025-03-06 20:00:00+00:00,335.8278008149375
2025-03-07 14:00:00+00:00,222.80678285970652
2025-03-07 15:00:00+00:00,267.79640739570146
2025-03-07 16:00:00+00:00,227.84054736091707
2025-03-07 17:00:00+00:00,210.13093555654308
2025-03-07 18:00:00+00:00,186.36679536703318
2025-03-07 19:00:00+00:00,179.18579928539833
2025-03-07 20:00:00+00:00,172.11315420078412
2025-03-10 13:00:00+00:00,160.82257797353265
2025-03-10 14:00:00+00:00,44.933053493218694
2025-03-10 15:00:00+00:00,101.71291720077242
2025-03-10 16:00:00+00:00,122.61290719257524
2025-03-10 17:00:00+00:00,175.73907334494103
2025-03-10 18:00:00+00:00,148.9002942797235
2025-03-10 19:00:00+00:00,134.33181847581366
2025-03-11 13:00:00+00:00,147.18887385114184
2025-03-11 14:00:00+00:00,135.80006893882393
2025-03-11 15:00:00+00:00,125.99780035363622
2025-03-11 16:00:00+00:00,126.30352653740997
2025-03-11 17:00:00+00:00,116.7747885300619
2025-03-11 18:00:00+00:00,126.97387222848326
2025-03-11 19:00:00+00:00,151.869605607331
2025-03-12 13:00:00+00:00,224.2216916277627
2025-03-12 14:00:00+00:00,214.89051975953316
2025-03-12 15:00:00+00:00,174.38788302371694
2025-03-12 16:00:00+00:00,141.85039174661395
2025-03-12 17:00:00+00:00,144.21091996742882
2025-03-12 18:00:00+00:00,180.71080936408578
2025-03-12 19:00:00+00:00,200.6344002848961
2025-03-13 13:00:00+00:00,285.20868991145875
2025-03-13 14:00:00+00:00,309.01574726227415
2025-03-13 15:00:00+00:00,342.57617561185276
2025-03-13 16:00:00+00:00,378.34682599390845
2025-03-13 17:00:00+00:00,390.47766334569604
2025-03-13 18:00:00+00:00,435.9569461069693
2025-03-13 19:00:00+00:00,396.29168389624846
2025-03-14 13:00:00+00:00,394.177658881678
2025-03-14 14:00:00+00:00,343.9057763039286
2025-03-14 15:00:00+00:00,365.7336592726529
2025-03-14 16:00:00+00:00,319.93973785127173
2025-03-14 17:00:00+00:00,305.9644483293297
2025-03-14 18:00:00+00:00,305.0825727475212
2025-03-14 19:00:00+00:00,291.2839902976551
2025-03-17 13:00:00+00:00,318.37783834033314
2025-03-17 14:00:00+00:00,329.0907378348846
2025-03-17 15:00:00+00:00,348.21236890972875
2025-03-17 16:00:00+00:00,368.41746459077046
2025-03-17 17:00:00+00:00,350.59563968204606
2025-03-17 18:00:00+00:00,379.33192232959425
2025-03-17 19:00:00+00:00,378.3702206452555
2025-03-18 13:00:00+00:00,417.2335230100107
2025-03-18 14:00:00+00:00,397.1590482934632
2025-03-18 15:00:00+00:00,451.2984211389952
2025-03-18 16:00:00+00:00,434.92276925221864
2025-03-18 17:00:00+00:00,388.74587260464335
2025-03-18 18:00:00+00:00,415.3695801816974
2025-03-18 19:00:00+00:00,421.0841893130585
2025-03-19 13:00:00+00:00,321.41814790225783
2025-03-19 14:00:00+00:00,289.0717860289939
2025-03-19 15:00:00+00:00,323.12403410665837
2025-03-19 16:00:00+00:00,314.96546149751634
2025-03-19 17:00:00+00:00,329.80945337624865
2025-03-19 18:00:00+00:00,316.1525426567306
2025-03-19 19:00:00+00:00,316.1227169103653
2025-03-20 13:00:00+00:00,331.33473365004954
2025-03-20 14:00:00+00:00,369.2739019739996
2025-03-20 15:00:00+00:00,410.70057143156794
2025-03-20 16:00:00+00:00,398.9312976712898
2025-03-20 17:00:00+00:00,407.3496803881431
2025-03-20 18:00:00+00:00,425.235565724209
2025-03-20 19:00:00+00:00,370.8686868257198
2025-03-21 13:00:00+00:00,400.46135400006926
2025-03-21 14:00:00+00:00,347.3285356258972
2025-03-21 15:00:00+00:00,317.47393176575406
2025-03-21 16:00:00+00:00,334.28847525432525
2025-03-21 17:00:00+00:00,318.4876590652865
2025-03-21 18:00:00+00:00,309.4055281705783
2025-03-21 19:00:00+00:00,266.8577405342845
2025-03-24 13:00:00+00:00,142.48245533727797
2025-03-24 14:00:00+00:00,104.05417801953016
2025-03-24 15:00:00+00:00,117.02699008623954
2025-03-24 16:00:00+00:00,123.58461984190279
2025-03-24 17:00:00+00:00,107.97528478701088
2025-03-24 18:00:00+00:00,94.22687156937083
2025-03-24 19:00:00+00:00,90.75086256522363
2025-03-25 13:00:00+00:00,115.7984964183816
2025-03-25 14:00:00+00:00,124.31173227842271
2025-03-25 15:00:00+00:00,109.66525183022371
2025-03-25 16:00:00+00:00,138.03695459184496
2025-03-25 17:00:00+00:00,106.368153151651
2025-03-25 18:00:00+00:00,124.17589759964612
2025-03-25 19:00:00+00:00,142.9771051040623
2025-03-26 13:00:00+00:00,62.79444931198094
2025-03-26 14:00:00+00:00,38.342076177618836
2025-03-26 15:00:00+00:00,78.952848423928
2025-03-26 16:00:00+00:00,57.790049409657215
2025-03-26 17:00:00+00:00,73.12285171115364
2025-03-26 18:00:00+00:00,89.62166614908148
2025-03-26 19:00:00+00:00,81.28709249580862
2025-03-27 13:00:00+00:00,101.93027129465692
2025-03-27 14:00:00+00:00,116.15572761098196
2025-03-27 15:00:00+00:00,146.57082151251862
2025-03-27 16:00:00+00:00,201.33686471861995
2025-03-27 17:00:00+00:00,202.2612160981129
2025-03-27 18:00:00+00:00,193.63613425408818
2025-03-27 19:00:00+00:00,200.78452116112985
2025-03-28 13:00:00+00:00,263.4861542746918
2025-03-28 14:00:00+00:00,254.64648192749723
2025-03-28 15:00:00+00:00,277.9139967016624
2025-03-28 16:00:00+00:00,226.8943559410188
2025-03-28 17:00:00+00:00,183.37098440396602
2025-03-28 18:00:00+00:00,176.46416862055034
2025-03-28 19:00:00+00:00,181.86048075956595
2025-03-31 13:00:00+00:00,70.49436689872606
2025-03-31 14:00:00+00:00,63.13520827015285
2025-03-31 15:00:00+00:00,43.325398959042836
2025-03-31 16:00:00+00:00,71.20670270584509
2025-03-31 17:00:00+00:00,58.76571484561185
2025-03-31 18:00:00+00:00,63.76244483791562
2025-03-31 19:00:00+00:00,91.15826299004924
2025-04-01 13:00:00+00:00,86.9437948077915
2025-04-01 14:00:00+00:00,55.42428398638539
2025-04-01 15:00:00+00:00,46.3161344412105
2025-04-01 16:00:00+00:00,60.8335186642813
2025-04-01 17:00:00+00:00,61.61399020014973
2025-04-01 18:00:00+00:00,77.14793516292241
2025-04-01 19:00:00+00:00,62.377127555479944
2025-04-02 13:00:00+00:00,23.020470136459032
2025-04-02 14:00:00+00:00,5.277712614173332
2025-04-02 15:00:00+00:00,-2.4720445507951387
2025-04-02 16:00:00+00:00,1.1199803016928422
2025-04-02 17:00:00+00:00,16.62666341074475
2025-04-02 18:00:00+00:00,25.151404497869443
2025-04-02 19:00:00+00:00,20.75572824344747
2025-04-03 13:00:00+00:00,247.54527953518067
2025-04-03 14:00:00+00:00,242.9169100372831
2025-04-03 15:00:00+00:00,238.70452881173355
2025-04-03 16:00:00+00:00,246.04631507424267
2025-04-03 17:00:00+00:00,261.76606586588366
2025-04-03 18:00:00+00:00,270.4195584369232
2025-04-03 19:00:00+00:00,261.90520457925635
2025-04-04 13:00:00+00:00,535.660270538333
2025-04-04 14:00:00+00:00,583.6724267996449
2025-04-04 15:00:00+00:00,578.1522184744426
2025-04-04 16:00:00+00:00,586.0319709741677
2025-04-04 17:00:00+00:00,625.2019614926832
2025-04-04 18:00:00+00:00,658.314640197832
2025-04-04 19:00:00+00:00,627.9025962410124
2025-04-07 13:00:00+00:00,759.0733755224435
2025-04-07 14:00:00+00:00,848.5956849609192
2025-04-07 15:00:00+00:00,791.1279947474065
2025-04-07 16:00:00+00:00,739.200360272752
2025-04-07 17:00:00+00:00,741.5133664457918
2025-04-07 18:00:00+00:00,784.56349728341
2025-04-07 19:00:00+00:00,751.8599612185808
2025-04-08 13:00:00+00:00,761.0305956966532
2025-04-08 14:00:00+00:00,875.1818424813987
2025-04-08 15:00:00+00:00,850.5210030997767
2025-04-08 16:00:00+00:00,980.0053576762909
2025-04-08 17:00:00+00:00,939.1567385366523
2025-04-08 18:00:00+00:00,963.6633803883661
2025-04-08 19:00:00+00:00,961.3705466899112
2025-04-09 13:00:00+00:00,851.9431643091862
2025-04-09 14:00:00+00:00,830.1163952890273
2025-04-09 15:00:00+00:00,815.4100944720406
2025-04-09 16:00:00+00:00,622.0057350977197
2025-04-09 17:00:00+00:00,561.9490980689496
2025-04-09 18:00:00+00:00,600.7339893505242
2025-04-09 19:00:00+00:00,628.416988572865
2025-04-10 13:00:00+00:00,969.5497154349598
2025-04-10 14:00:00+00:00,986.2956748420665
2025-04-10 15:00:00+00:00,1077.4179430877293
2025-04-10 16:00:00+00:00,1077.6135981352938
2025-04-10 17:00:00+00:00,1050.7882376811615
2025-04-10 18:00:00+00:00,1120.3785838378346
2025-04-10 19:00:00+00:00,1049.8351238443452
2025-04-11 13:00:00+00:00,1062.3866160107414
2025-04-11 14:00:00+00:00,1012.3688382435644
2025-04-11 15:00:00+00:00,958.2958832800415
2025-04-11 16:00:00+00:00,920.6949379991435
2025-04-11 17:00:00+00:00,879.3905569038899
2025-04-11 18:00:00+00:00,828.7895487407164
2025-04-11 19:00:00+00:00,851.0588912529378
2025-04-14 13:00:00+00:00,871.1038104182343
2025-04-14 14:00:00+00:00,917.7948525159394
2025-04-14 15:00:00+00:00,933.3543130678796
2025-04-14 16:00:00+00:00,944.6384519541557
2025-04-14 17:00:00+00:00,905.3881147267418
2025-04-14 18:00:00+00:00,917.6223464587716
2025-04-14 19:00:00+00:00,897.3634190943537
2025-04-15 13:00:00+00:00,861.02112288168
2025-04-15 14:00:00+00:00,859.828916229627
2025-04-15 15:00:00+00:00,872.7696444247556
2025-04-15 16:00:00+00:00,881.4176050640639
2025-04-15 17:00:00+00:00,877.7304505317692
2025-04-15 18:00:00+00:00,849.9744929152321
2025-04-15 19:00:00+00:00,857.0679694597956
2025-04-16 13:00:00+00:00,793.0947507375183
2025-04-16 14:00:00+00:00,789.5430035219872
2025-04-16 15:00:00+00:00,780.7196986886968
2025-04-16 16:00:00+00:00,751.99819267055
2025-04-16 17:00:00+00:00,796.324859830172
2025-04-16 18:00:00+00:00,818.8117521389479
2025-04-16 19:00:00+00:00,806.2224157923997
2025-04-17 13:00:00+00:00,718.6965111396436
2025-04-17 14:00:00+00:00,691.5294884753774
2025-04-17 15:00:00+00:00,623.788603987756
2025-04-17 16:00:00+00:00,666.9956711592131
2025-04-17 17:00:00+00:00,646.9964176587249
2025-04-17 18:00:00+00:00,674.0001782226288
2025-04-17 19:00:00+00:00,726.2895125325731
2025-04-21 13:00:00+00:00,806.7063965771782
2025-04-21 14:00:00+00:00,803.3145902641859
2025-04-21 15:00:00+00:00,821.1375993156718
2025-04-21 16:00:00+00:00,857.0548780448543
2025-04-21 17:00:00+00:00,858.4747269936449
2025-04-21 18:00:00+00:00,830.2651256800732
2025-04-21 19:00:00+00:00,785.8509389833818
2025-04-22 13:00:00+00:00,723.7738694361635
2025-04-22 14:00:00+00:00,711.9692094145685
2025-04-22 15:00:00+00:00,679.8040817388347
2025-04-22 16:00:00+00:00,748.194426489859
2025-04-22 17:00:00+00:00,719.6349030556423
2025-04-22 18:00:00+00:00,712.9530253834836
2025-04-22 19:00:00+00:00,726.5604784295098
2025-04-23 13:00:00+00:00,778.9678695816226
2025-04-23 14:00:00+00:00,803.174633922724
2025-04-23 15:00:00+00:00,793.9484869406097
2025-04-23 16:00:00+00:00,757.3860833802469
2025-04-23 17:00:00+00:00,751.5984262213773
2025-04-23 18:00:00+00:00,782.1132018944448
2025-04-23 19:00:00+00:00,743.8063295025052
2025-04-24 13:00:00+00:00,652.7380224977527
2025-04-24 14:00:00+00:00,651.5555462250097
2025-04-24 15:00:00+00:00,627.600797238027
2025-04-24 16:00:00+00:00,608.9026789940128
2025-04-24 17:00:00+00:00,613.8329011597683
2025-04-24 18:00:00+00:00,643.6683415578984
2025-04-24 19:00:00+00:00,615.4973073242121
2025-04-25 13:00:00+00:00,642.6923335357376
2025-04-25 14:00:00+00:00,635.3374629880552
2025-04-25 15:00:00+00:00,631.3605584342104
2025-04-25 16:00:00+00:00,667.0894911877822
2025-04-25 17:00:00+00:00,669.8134393830766
2025-04-25 18:00:00+00:00,659.6898820205523
2025-04-25 19:00:00+00:00,646.8093259245204
2025-04-28 13:00:00+00:00,633.9858067690474
2025-04-28 14:00:00+00:00,653.2099844216184
2025-04-28 15:00:00+00:00,613.7561624683202
2025-04-28 16:00:00+00:00,629.5255690155842
2025-04-28 17:00:00+00:00,596.4275876970908
2025-04-28 18:00:00+00:00,594.3459809047469
2025-04-28 19:00:00+00:00,600.2670736767514
2025-04-29 13:00:00+00:00,702.1138281792452
2025-04-29 14:00:00+00:00,631.9814464517925
2025-04-29 15:00:00+00:00,647.6057736226124
2025-04-29 16:00:00+00:00,638.8201242140092
2025-04-29 17:00:00+00:00,632.8467421780298
2025-04-29 18:00:00+00:00,644.1686988187198
2025-04-29 19:00:00+00:00,684.1950389393103
2025-04-30 13:00:00+00:00,786.3104418082933
2025-04-30 14:00:00+00:00,788.0898640142933
2025-04-30 15:00:00+00:00,788.0898640142933
2025-04-30 16:00:00+00:00,788.0898640142933
2025-04-30 17:00:00+00:00,788.0898640142933
2025-04-30 18:00:00+00:00,788.0898640142933
2025-04-30 19:00:00+00:00,788.0898640142933
2025-05-01 13:00:00+00:00,788.0898640142933
2025-05-01 14:00:00+00:00,788.0898640142933
2025-05-01 15:00:00+00:00,788.0898640142933
2025-05-01 16:00:00+00:00,788.0898640142933
2025-05-01 17:00:00+00:00,788.0898640142933
2025-05-01 18:00:00+00:00,788.0898640142933
2025-05-01 19:00:00+00:00,788.0898640142933
2025-05-02 13:00:00+00:00,788.0898640142933
2025-05-02 14:00:00+00:00,788.0898640142933
2025-05-02 15:00:00+00:00,788.0898640142933
2025-05-02 16:00:00+00:00,788.0898640142933
2025-05-02 17:00:00+00:00,788.0898640142933
2025-05-02 18:00:00+00:00,788.0898640142933
2025-05-02 19:00:00+00:00,788.0898640142933
2025-05-05 13:00:00+00:00,788.0898640142933
2025-05-05 14:00:00+00:00,788.0898640142933
2025-05-05 15:00:00+00:00,788.0898640142933
2025-05-05 16:00:00+00:00,788.0898640142933
2025-05-05 17:00:00+00:00,788.0898640142933
2025-05-05 18:00:00+00:00,788.0898640142933
2025-05-05 19:00:00+00:00,788.0898640142933
2025-05-06 13:00:00+00:00,788.0898640142933
2025-05-06 14:00:00+00:00,788.0898640142933
2025-05-06 15:00:00+00:00,788.0898640142933
2025-05-06 16:00:00+00:00,788.0898640142933
2025-05-06 17:00:00+00:00,788.0898640142933
2025-05-06 18:00:00+00:00,788.0898640142933
2025-05-06 19:00:00+00:00,788.0898640142933
2025-05-07 13:00:00+00:00,788.0898640142933
2025-05-07 14:00:00+00:00,788.0898640142933
2025-05-07 15:00:00+00:00,788.0898640142933
2025-05-07 16:00:00+00:00,788.0898640142933
2025-05-07 17:00:00+00:00,788.0898640142933
2025-05-07 18:00:00+00:00,788.0898640142933
2025-05-07 19:00:00+00:00,788.0898640142933
2025-05-08 13:00:00+00:00,788.0898640142933
2025-05-08 14:00:00+00:00,788.0898640142933
2025-05-08 15:00:00+00:00,788.0898640142933
2025-05-08 16:00:00+00:00,788.0898640142933
2025-05-08 17:00:00+00:00,788.0898640142933
2025-05-08 18:00:00+00:00,788.0898640142933
2025-05-08 19:00:00+00:00,788.0898640142933
2025-05-09 13:00:00+00:00,788.0898640142933
2025-05-09 14:00:00+00:00,788.0898640142933
2025-05-09 15:00:00+00:00,788.0898640142933
2025-05-09 16:00:00+00:00,788.0898640142933
2025-05-09 17:00:00+00:00,788.0898640142933
2025-05-09 18:00:00+00:00,788.0898640142933
2025-05-09 19:00:00+00:00,788.0898640142933
2025-05-12 13:00:00+00:00,788.0898640142933
2025-05-12 14:00:00+00:00,788.0898640142933
2025-05-12 15:00:00+00:00,788.0898640142933
2025-05-12 16:00:00+00:00,788.0898640142933
2025-05-12 17:00:00+00:00,788.0898640142933
2025-05-12 18:00:00+00:00,788.0898640142933
2025-05-12 19:00:00+00:00,788.0898640142933
2025-05-13 13:00:00+00:00,788.0898640142933
2025-05-13 14:00:00+00:00,788.0898640142933
2025-05-13 15:00:00+00:00,788.0898640142933
2025-05-13 16:00:00+00:00,788.0898640142933
2025-05-13 17:00:00+00:00,788.0898640142933
2025-05-13 18:00:00+00:00,788.0898640142933
2025-05-13 19:00:00+00:00,788.0898640142933
2025-05-14 13:00:00+00:00,788.0898640142933
2025-05-14 14:00:00+00:00,788.0898640142933
2025-05-14 15:00:00+00:00,788.0898640142933
2025-05-14 16:00:00+00:00,788.0898640142933
2025-05-14 17:00:00+00:00,788.0898640142933
2025-05-14 18:00:00+00:00,788.0898640142933
2025-05-14 19:00:00+00:00,788.0898640142933
2025-05-15 13:00:00+00:00,788.0898640142933
2025-05-15 14:00:00+00:00,788.0898640142933
2025-05-15 15:00:00+00:00,788.0898640142933
2025-05-15 16:00:00+00:00,788.0898640142933
2025-05-15 17:00:00+00:00,788.0898640142933
2025-05-15 18:00:00+00:00,788.0898640142933
2025-05-15 19:00:00+00:00,788.0898640142933
2025-05-16 13:00:00+00:00,788.0898640142933
2025-05-16 14:00:00+00:00,788.0898640142933
2025-05-16 15:00:00+00:00,788.0898640142933
2025-05-16 16:00:00+00:00,788.0898640142933
2025-05-16 17:00:00+00:00,788.0898640142933
2025-05-16 18:00:00+00:00,788.0898640142933
2025-05-16 19:00:00+00:00,788.0898640142933
2025-05-19 13:00:00+00:00,788.0898640142933
2025-05-19 14:00:00+00:00,788.0898640142933
2025-05-19 15:00:00+00:00,788.0898640142933
2025-05-19 16:00:00+00:00,788.0898640142933
2025-05-19 17:00:00+00:00,788.0898640142933
2025-05-19 18:00:00+00:00,788.0898640142933
2025-05-19 19:00:00+00:00,788.0898640142933
2025-05-20 13:00:00+00:00,788.0898640142933
2025-05-20 14:00:00+00:00,788.0898640142933
2025-05-20 15:00:00+00:00,788.0898640142933
2025-05-20 16:00:00+00:00,788.0898640142933
2025-05-20 17:00:00+00:00,788.0898640142933
2025-05-20 18:00:00+00:00,788.0898640142933
2025-05-20 19:00:00+00:00,788.0898640142933
2025-05-21 13:00:00+00:00,788.0898640142933
2025-05-21 14:00:00+00:00,788.0898640142933
2025-05-21 15:00:00+00:00,788.0898640142933
2025-05-21 16:00:00+00:00,788.0898640142933
2025-05-21 17:00:00+00:00,788.0898640142933
2025-05-21 18:00:00+00:00,788.0898640142933
2025-05-21 19:00:00+00:00,788.0898640142933
2025-05-22 13:00:00+00:00,788.0898640142933
2025-05-22 14:00:00+00:00,788.0898640142933
2025-05-22 15:00:00+00:00,788.0898640142933
2025-05-22 16:00:00+00:00,788.0898640142933
2025-05-22 17:00:00+00:00,788.0898640142933
2025-05-22 18:00:00+00:00,788.0898640142933
2025-05-22 19:00:00+00:00,788.0898640142933
2025-05-23 13:00:00+00:00,788.0898640142933
2025-05-23 14:00:00+00:00,788.0898640142933
2025-05-23 15:00:00+00:00,788.0898640142933
2025-05-23 16:00:00+00:00,788.0898640142933
2025-05-23 17:00:00+00:00,788.0898640142933
2025-05-23 18:00:00+00:00,788.0898640142933
2025-05-23 19:00:00+00:00,788.0898640142933
2025-05-27 13:00:00+00:00,788.0898640142933
2025-05-27 14:00:00+00:00,788.0898640142933
2025-05-27 15:00:00+00:00,788.0898640142933
2025-05-27 16:00:00+00:00,788.0898640142933
2025-05-27 17:00:00+00:00,788.0898640142933
2025-05-27 18:00:00+00:00,788.0898640142933
2025-05-27 19:00:00+00:00,788.0898640142933
2025-05-28 13:00:00+00:00,788.0898640142933
2025-05-28 14:00:00+00:00,788.0898640142933
2025-05-28 15:00:00+00:00,788.0898640142933
2025-05-28 16:00:00+00:00,788.0898640142933
2025-05-28 17:00:00+00:00,788.0898640142933
2025-05-28 18:00:00+00:00,788.0898640142933
2025-05-28 19:00:00+00:00,788.0898640142933
2025-05-29 13:00:00+00:00,788.0898640142933
2025-05-29 14:00:00+00:00,788.0898640142933
2025-05-29 15:00:00+00:00,788.0898640142933
2025-05-29 16:00:00+00:00,788.0898640142933
2025-05-29 17:00:00+00:00,788.0898640142933
2025-05-29 18:00:00+00:00,788.0898640142933
2025-05-29 19:00:00+00:00,788.0898640142933
2025-05-30 13:00:00+00:00,788.0898640142933
2025-05-30 14:00:00+00:00,788.0898640142933
2025-05-30 15:00:00+00:00,788.0898640142933
2025-05-30 16:00:00+00:00,788.0898640142933
2025-05-30 17:00:00+00:00,788.0898640142933
2025-05-30 18:00:00+00:00,788.0898640142933
2025-05-30 19:00:00+00:00,788.0898640142933
2025-06-02 13:00:00+00:00,788.0898640142933
2025-06-02 14:00:00+00:00,788.0898640142933
2025-06-02 15:00:00+00:00,788.0898640142933
2025-06-02 16:00:00+00:00,788.0898640142933
2025-06-02 17:00:00+00:00,788.0898640142933
2025-06-02 18:00:00+00:00,788.0898640142933
2025-06-02 19:00:00+00:00,788.0898640142933
2025-06-03 13:00:00+00:00,788.0898640142933
2025-06-03 14:00:00+00:00,788.0898640142933
2025-06-03 15:00:00+00:00,788.0898640142933
2025-06-03 16:00:00+00:00,788.0898640142933
2025-06-03 17:00:00+00:00,788.0898640142933
2025-06-03 18:00:00+00:00,788.0898640142933
2025-06-03 19:00:00+00:00,788.0898640142933
2025-06-04 13:00:00+00:00,788.0898640142933
2025-06-04 14:00:00+00:00,788.0898640142933
2025-06-04 15:00:00+00:00,788.0898640142933
2025-06-04 16:00:00+00:00,788.0898640142933
2025-06-04 17:00:00+00:00,788.0898640142933
2025-06-04 18:00:00+00:00,788.0898640142933
2025-06-04 19:00:00+00:00,788.0898640142933
2025-06-05 13:00:00+00:00,788.0898640142933
2025-06-05 14:00:00+00:00,788.0898640142933
2025-06-05 15:00:00+00:00,788.0898640142933
2025-06-05 16:00:00+00:00,788.0898640142933
2025-06-05 17:00:00+00:00,788.0898640142933
2025-06-05 18:00:00+00:00,788.0898640142933
2025-06-05 19:00:00+00:00,788.0898640142933
2025-06-06 13:00:00+00:00,788.0898640142933
2025-06-06 14:00:00+00:00,788.0898640142933
2025-06-06 15:00:00+00:00,788.0898640142933
2025-06-06 16:00:00+00:00,788.0898640142933
2025-06-06 17:00:00+00:00,788.0898640142933
2025-06-06 18:00:00+00:00,788.0898640142933
2025-06-06 19:00:00+00:00,788.0898640142933
2025-06-09 13:00:00+00:00,788.0898640142933
2025-06-09 14:00:00+00:00,788.0898640142933
2025-06-09 15:00:00+00:00,788.0898640142933
2025-06-09 16:00:00+00:00,788.0898640142933
2025-06-09 17:00:00+00:00,788.0898640142933
2025-06-09 18:00:00+00:00,788.0898640142933
2025-06-09 19:00:00+00:00,788.0898640142933
2025-06-10 13:00:00+00:00,788.0898640142933
2025-06-10 14:00:00+00:00,788.0898640142933
2025-06-10 15:00:00+00:00,788.0898640142933
2025-06-10 16:00:00+00:00,788.0898640142933
2025-06-10 17:00:00+00:00,788.0898640142933
2025-06-10 18:00:00+00:00,788.0898640142933
2025-06-10 19:00:00+00:00,788.0898640142933
2025-06-11 13:00:00+00:00,788.0898640142933
2025-06-11 14:00:00+00:00,788.0898640142933
2025-06-11 15:00:00+00:00,788.0898640142933
2025-06-11 16:00:00+00:00,788.0898640142933
2025-06-11 17:00:00+00:00,788.0898640142933
2025-06-11 18:00:00+00:00,788.0898640142933
2025-06-11 19:00:00+00:00,788.0898640142933
2025-06-12 13:00:00+00:00,788.0898640142933
2025-06-12 14:00:00+00:00,788.0898640142933
2025-06-12 15:00:00+00:00,788.0898640142933
2025-06-12 16:00:00+00:00,788.0898640142933
2025-06-12 17:00:00+00:00,788.0898640142933
2025-06-12 18:00:00+00:00,788.0898640142933
2025-06-12 19:00:00+00:00,788.0898640142933
2025-06-13 13:00:00+00:00,788.0898640142933
2025-06-13 14:00:00+00:00,788.0898640142933
2025-06-13 15:00:00+00:00,788.0898640142933
2025-06-13 16:00:00+00:00,788.0898640142933
2025-06-13 17:00:00+00:00,788.0898640142933
2025-06-13 18:00:00+00:00,788.0898640142933
2025-06-13 19:00:00+00:00,788.0898640142933
2025-06-16 13:00:00+00:00,788.0898640142933
2025-06-16 14:00:00+00:00,788.0898640142933
2025-06-16 15:00:00+00:00,788.0898640142933
2025-06-16 16:00:00+00:00,788.0898640142933
2025-06-16 17:00:00+00:00,788.0898640142933
2025-06-16 18:00:00+00:00,788.0898640142933
2025-06-16 19:00:00+00:00,788.0898640142933
2025-06-17 13:00:00+00:00,788.0898640142933
2025-06-17 14:00:00+00:00,788.0898640142933
2025-06-17 15:00:00+00:00,788.0898640142933
2025-06-17 16:00:00+00:00,788.0898640142933
2025-06-17 17:00:00+00:00,788.0898640142933
2025-06-17 18:00:00+00:00,788.0898640142933
2025-06-17 19:00:00+00:00,788.0898640142933
2025-06-18 13:00:00+00:00,788.0898640142933
2025-06-18 14:00:00+00:00,788.0898640142933
2025-06-18 15:00:00+00:00,788.0898640142933
2025-06-18 16:00:00+00:00,788.0898640142933
2025-06-18 17:00:00+00:00,788.0898640142933
2025-06-18 18:00:00+00:00,788.0898640142933
2025-06-18 19:00:00+00:00,788.0898640142933
2025-06-20 13:00:00+00:00,788.0898640142933
2025-06-20 14:00:00+00:00,788.0898640142933
2025-06-20 15:00:00+00:00,788.0898640142933
2025-06-20 16:00:00+00:00,788.0898640142933
2025-06-20 17:00:00+00:00,788.0898640142933
2025-06-20 18:00:00+00:00,788.0898640142933
2025-06-20 19:00:00+00:00,788.0898640142933
2025-06-23 13:00:00+00:00,788.0898640142933
2025-06-23 14:00:00+00:00,788.0898640142933
2025-06-23 15:00:00+00:00,788.0898640142933
2025-06-23 16:00:00+00:00,788.0898640142933
2025-06-23 17:00:00+00:00,788.0898640142933
2025-06-23 18:00:00+00:00,788.0898640142933
2025-06-23 19:00:00+00:00,788.0898640142933
2025-06-24 13:00:00+00:00,788.0898640142933
2025-06-24 14:00:00+00:00,788.0898640142933
2025-06-24 15:00:00+00:00,788.0898640142933
2025-06-24 16:00:00+00:00,788.0898640142933
2025-06-24 17:00:00+00:00,788.0898640142933
2025-06-24 18:00:00+00:00,788.0898640142933
2025-06-24 19:00:00+00:00,788.0898640142933
2025-06-25 13:00:00+00:00,788.0898640142933
2025-06-25 14:00:00+00:00,788.0898640142933
2025-06-25 15:00:00+00:00,788.0898640142933
2025-06-25 16:00:00+00:00,788.0898640142933
2025-06-25 17:00:00+00:00,788.0898640142933
2025-06-25 18:00:00+00:00,788.0898640142933
2025-06-25 19:00:00+00:00,788.0898640142933
2025-06-26 13:00:00+00:00,788.0898640142933
2025-06-26 14:00:00+00:00,788.0898640142933
2025-06-26 15:00:00+00:00,788.0898640142933
2025-06-26 16:00:00+00:00,788.0898640142933
2025-06-26 17:00:00+00:00,788.0898640142933
2025-06-26 18:00:00+00:00,788.0898640142933
2025-06-26 19:00:00+00:00,788.0898640142933
2025-06-27 13:00:00+00:00,788.0898640142933
2025-06-27 14:00:00+00:00,788.0898640142933
2025-06-27 15:00:00+00:00,788.0898640142933
2025-06-27 16:00:00+00:00,788.0898640142933
2025-06-27 17:00:00+00:00,788.0898640142933
2025-06-27 18:00:00+00:00,788.0898640142933
2025-06-27 19:00:00+00:00,788.0898640142933
2025-06-30 13:00:00+00:00,788.0898640142933
2025-06-30 14:00:00+00:00,788.0898640142933
2025-06-30 15:00:00+00:00,788.0898640142933
2025-06-30 16:00:00+00:00,788.0898640142933
2025-06-30 17:00:00+00:00,788.0898640142933
2025-06-30 18:00:00+00:00,788.0898640142933
2025-06-30 19:00:00+00:00,788.0898640142933
2025-07-01 13:00:00+00:00,788.0898640142933
2025-07-01 14:00:00+00:00,788.0898640142933
2025-07-01 15:00:00+00:00,788.0898640142933
2025-07-01 16:00:00+00:00,788.0898640142933
2025-07-01 17:00:00+00:00,788.0898640142933
2025-07-01 18:00:00+00:00,788.0898640142933
2025-07-01 19:00:00+00:00,788.0898640142933
2025-07-02 13:00:00+00:00,788.0898640142933
2025-07-02 14:00:00+00:00,788.0898640142933
2025-07-02 15:00:00+00:00,788.0898640142933
2025-07-02 16:00:00+00:00,788.0898640142933
2025-07-02 17:00:00+00:00,788.0898640142933
2025-07-02 18:00:00+00:00,788.0898640142933
2025-07-02 19:00:00+00:00,788.0898640142933
2025-07-03 13:00:00+00:00,788.0898640142933
2025-07-03 14:00:00+00:00,788.0898640142933
2025-07-03 15:00:00+00:00,788.0898640142933
2025-07-07 13:00:00+00:00,788.0898640142933
2025-07-07 14:00:00+00:00,788.0898640142933
2025-07-07 15:00:00+00:00,788.0898640142933
2025-07-07 16:00:00+00:00,788.0898640142933
2025-07-07 17:00:00+00:00,788.0898640142933
2025-07-07 18:00:00+00:00,788.0898640142933
2025-07-07 19:00:00+00:00,788.0898640142933
2025-07-08 13:00:00+00:00,788.0898640142933
2025-07-08 14:00:00+00:00,788.0898640142933
2025-07-08 15:00:00+00:00,788.0898640142933
2025-07-08 16:00:00+00:00,788.0898640142933
2025-07-08 17:00:00+00:00,788.0898640142933
2025-07-08 18:00:00+00:00,788.0898640142933
2025-07-08 19:00:00+00:00,788.0898640142933
2025-07-09 13:00:00+00:00,788.0898640142933
2025-07-09 14:00:00+00:00,788.0898640142933
2025-07-09 15:00:00+00:00,788.0898640142933
2025-07-09 16:00:00+00:00,788.0898640142933
2025-07-09 17:00:00+00:00,788.0898640142933
2025-07-09 18:00:00+00:00,788.0898640142933
2025-07-09 19:00:00+00:00,788.0898640142933
2025-07-10 13:00:00+00:00,788.0898640142933
2025-07-10 14:00:00+00:00,788.0898640142933
2025-07-10 15:00:00+00:00,788.0898640142933
2025-07-10 16:00:00+00:00,788.0898640142933
2025-07-10 17:00:00+00:00,788.0898640142933
2025-07-10 18:00:00+00:00,788.0898640142933
2025-07-10 19:00:00+00:00,788.0898640142933
2025-07-11 13:00:00+00:00,788.0898640142933
2025-07-11 14:00:00+00:00,788.0898640142933
2025-07-11 15:00:00+00:00,788.0898640142933
2025-07-11 16:00:00+00:00,788.0898640142933
2025-07-11 17:00:00+00:00,788.0898640142933
2025-07-11 18:00:00+00:00,788.0898640142933
2025-07-11 19:00:00+00:00,788.0898640142933
2025-07-14 13:00:00+00:00,788.0898640142933
2025-07-14 14:00:00+00:00,788.0898640142933
2025-07-14 15:00:00+00:00,788.0898640142933
2025-07-14 16:00:00+00:00,788.0898640142933
2025-07-14 17:00:00+00:00,788.0898640142933
2025-07-14 18:00:00+00:00,788.0898640142933
2025-07-14 19:00:00+00:00,788.0898640142933
2025-07-15 13:00:00+00:00,788.0898640142933
2025-07-15 14:00:00+00:00,788.0898640142933
2025-07-15 15:00:00+00:00,788.0898640142933
2025-07-15 16:00:00+00:00,788.0898640142933
2025-07-15 17:00:00+00:00,788.0898640142933
2025-07-15 18:00:00+00:00,788.0898640142933
2025-07-15 19:00:00+00:00,788.0898640142933
2025-07-16 13:00:00+00:00,788.0898640142933
2025-07-16 14:00:00+00:00,788.0898640142933
2025-07-16 15:00:00+00:00,788.0898640142933
2025-07-16 16:00:00+00:00,788.0898640142933
2025-07-16 17:00:00+00:00,788.0898640142933
2025-07-16 18:00:00+00:00,788.0898640142933
2025-07-16 19:00:00+00:00,788.0898640142933
2025-07-17 13:00:00+00:00,788.0898640142933
2025-07-17 14:00:00+00:00,788.0898640142933
2025-07-17 15:00:00+00:00,788.0898640142933
2025-07-17 16:00:00+00:00,788.0898640142933
2025-07-17 17:00:00+00:00,788.0898640142933
2025-07-17 18:00:00+00:00,788.0898640142933
2025-07-17 19:00:00+00:00,788.0898640142933
2025-07-18 13:00:00+00:00,788.0898640142933
2025-07-18 14:00:00+00:00,788.0898640142933
2025-07-18 15:00:00+00:00,788.0898640142933
2025-07-18 16:00:00+00:00,788.0898640142933
2025-07-18 17:00:00+00:00,788.0898640142933
2025-07-18 18:00:00+00:00,788.0898640142933
2025-07-18 19:00:00+00:00,788.0898640142933
2025-07-21 13:00:00+00:00,788.0898640142933
2025-07-21 14:00:00+00:00,788.0898640142933
2025-07-21 15:00:00+00:00,788.0898640142933
2025-07-21 16:00:00+00:00,788.0898640142933
2025-07-21 17:00:00+00:00,788.0898640142933
2025-07-21 18:00:00+00:00,788.0898640142933
2025-07-21 19:00:00+00:00,788.0898640142933
2025-07-22 13:00:00+00:00,788.0898640142933
2025-07-22 14:00:00+00:00,788.0898640142933
2025-07-22 15:00:00+00:00,788.0898640142933
2025-07-22 16:00:00+00:00,788.0898640142933
2025-07-22 17:00:00+00:00,788.0898640142933
2025-07-22 18:00:00+00:00,788.0898640142933
2025-07-22 19:00:00+00:00,788.0898640142933
2025-07-23 13:00:00+00:00,788.0898640142933
2025-07-23 14:00:00+00:00,788.0898640142933
2025-07-23 15:00:00+00:00,788.0898640142933
2025-07-23 16:00:00+00:00,788.0898640142933
2025-07-23 17:00:00+00:00,788.0898640142933
2025-07-23 18:00:00+00:00,788.0898640142933
2025-07-23 19:00:00+00:00,788.0898640142933
2025-07-24 13:00:00+00:00,788.0898640142933
2025-07-24 14:00:00+00:00,788.0898640142933
2025-07-24 15:00:00+00:00,788.0898640142933
2025-07-24 16:00:00+00:00,788.0898640142933
2025-07-24 17:00:00+00:00,788.0898640142933
2025-07-24 18:00:00+00:00,788.0898640142933
2025-07-24 19:00:00+00:00,788.0898640142933
2025-07-25 13:00:00+00:00,788.0898640142933
2025-07-25 14:00:00+00:00,788.0898640142933
2025-07-25 15:00:00+00:00,788.0898640142933
2025-07-25 16:00:00+00:00,788.0898640142933
2025-07-25 17:00:00+00:00,788.0898640142933
2025-07-25 18:00:00+00:00,788.0898640142933
2025-07-25 19:00:00+00:00,788.0898640142933
2025-07-28 13:00:00+00:00,788.0898640142933
2025-07-28 14:00:00+00:00,788.0898640142933
2025-07-28 15:00:00+00:00,788.0898640142933
2025-07-28 16:00:00+00:00,788.0898640142933
2025-07-28 17:00:00+00:00,788.0898640142933
2025-07-28 18:00:00+00:00,788.0898640142933
2025-07-28 19:00:00+00:00,788.0898640142933
2025-07-29 13:00:00+00:00,788.0898640142933
2025-07-29 14:00:00+00:00,788.0898640142933
2025-07-29 15:00:00+00:00,788.0898640142933
2025-07-29 16:00:00+00:00,788.0898640142933
2025-07-29 17:00:00+00:00,788.0898640142933
2025-07-29 18:00:00+00:00,788.0898640142933
2025-07-29 19:00:00+00:00,788.0898640142933
2025-07-30 13:00:00+00:00,788.0898640142933
2025-07-30 14:00:00+00:00,788.0898640142933
2025-07-30 15:00:00+00:00,788.0898640142933
2025-07-30 16:00:00+00:00,788.0898640142933
2025-07-30 17:00:00+00:00,788.0898640142933
2025-07-30 18:00:00+00:00,788.0898640142933
2025-07-30 19:00:00+00:00,788.0898640142933
2025-07-31 13:00:00+00:00,788.0898640142933
2025-07-31 14:00:00+00:00,788.0898640142933
2025-07-31 15:00:00+00:00,788.0898640142933
2025-07-31 16:00:00+00:00,788.0898640142933
2025-07-31 17:00:00+00:00,788.0898640142933
2025-07-31 18:00:00+00:00,788.0898640142933
2025-07-31 19:00:00+00:00,788.0898640142933
2025-08-01 13:00:00+00:00,788.0898640142933
2025-08-01 14:00:00+00:00,788.0898640142933
2025-08-01 15:00:00+00:00,788.0898640142933
2025-08-01 16:00:00+00:00,788.0898640142933
2025-08-01 17:00:00+00:00,788.0898640142933
2025-08-01 18:00:00+00:00,788.0898640142933
2025-08-01 19:00:00+00:00,788.0898640142933
2025-08-04 13:00:00+00:00,788.0898640142933
2025-08-04 14:00:00+00:00,788.0898640142933
2025-08-04 15:00:00+00:00,788.0898640142933
2025-08-04 16:00:00+00:00,788.0898640142933
2025-08-04 17:00:00+00:00,788.0898640142933
2025-08-04 18:00:00+00:00,788.0898640142933
2025-08-04 19:00:00+00:00,788.0898640142933
2025-08-05 13:00:00+00:00,788.0898640142933
2025-08-05 14:00:00+00:00,788.0898640142933
2025-08-05 15:00:00+00:00,788.0898640142933
2025-08-05 16:00:00+00:00,788.0898640142933
2025-08-05 17:00:00+00:00,788.0898640142933
2025-08-05 18:00:00+00:00,788.0898640142933
2025-08-05 19:00:00+00:00,788.0898640142933
2025-08-06 13:00:00+00:00,788.0898640142933
2025-08-06 14:00:00+00:00,788.0898640142933
2025-08-06 15:00:00+00:00,788.0898640142933
2025-08-06 16:00:00+00:00,788.0898640142933
2025-08-06 17:00:00+00:00,788.0898640142933
2025-08-06 18:00:00+00:00,788.0898640142933
2025-08-06 19:00:00+00:00,788.0898640142933
2025-08-07 13:00:00+00:00,788.0898640142933
2025-08-07 14:00:00+00:00,788.0898640142933
2025-08-07 15:00:00+00:00,788.0898640142933
2025-08-07 16:00:00+00:00,788.0898640142933
2025-08-07 17:00:00+00:00,788.0898640142933
2025-08-07 18:00:00+00:00,788.0898640142933
2025-08-07 19:00:00+00:00,788.0898640142933
2025-08-08 13:00:00+00:00,788.0898640142933
2025-08-08 14:00:00+00:00,788.0898640142933
2025-08-08 15:00:00+00:00,788.0898640142933
2025-08-08 16:00:00+00:00,788.0898640142933
2025-08-08 17:00:00+00:00,788.0898640142933
2025-08-08 18:00:00+00:00,788.0898640142933
2025-08-08 19:00:00+00:00,788.0898640142933
2025-08-11 13:00:00+00:00,788.0898640142933
2025-08-11 14:00:00+00:00,788.0898640142933
2025-08-11 15:00:00+00:00,788.0898640142933
2025-08-11 16:00:00+00:00,788.0898640142933
2025-08-11 17:00:00+00:00,788.0898640142933
2025-08-11 18:00:00+00:00,788.0898640142933
2025-08-11 19:00:00+00:00,788.0898640142933
2025-08-12 13:00:00+00:00,788.0898640142933
2025-08-12 14:00:00+00:00,788.0898640142933
2025-08-12 15:00:00+00:00,788.0898640142933
2025-08-12 16:00:00+00:00,788.0898640142933
2025-08-12 17:00:00+00:00,788.0898640142933
2025-08-12 18:00:00+00:00,788.0898640142933
2025-08-12 19:00:00+00:00,788.0898640142933
2025-08-13 13:00:00+00:00,788.0898640142933
2025-08-13 14:00:00+00:00,788.0898640142933
2025-08-13 15:00:00+00:00,788.0898640142933
2025-08-13 16:00:00+00:00,788.0898640142933
2025-08-13 17:00:00+00:00,788.0898640142933
2025-08-13 18:00:00+00:00,788.0898640142933
2025-08-13 19:00:00+00:00,788.0898640142933
2025-08-14 13:00:00+00:00,788.0898640142933
2025-08-14 14:00:00+00:00,788.0898640142933
2025-08-14 15:00:00+00:00,788.0898640142933
2025-08-14 16:00:00+00:00,788.0898640142933
2025-08-14 17:00:00+00:00,788.0898640142933
2025-08-14 18:00:00+00:00,788.0898640142933
2025-08-14 19:00:00+00:00,788.0898640142933
2025-08-15 13:00:00+00:00,788.0898640142933
2025-08-15 14:00:00+00:00,788.0898640142933
2025-08-15 15:00:00+00:00,788.0898640142933
2025-08-15 16:00:00+00:00,788.0898640142933
2025-08-15 17:00:00+00:00,788.0898640142933
2025-08-15 18:00:00+00:00,788.0898640142933
2025-08-15 19:00:00+00:00,788.0898640142933
2025-08-18 13:00:00+00:00,788.0898640142933
2025-08-18 14:00:00+00:00,788.0898640142933
2025-08-18 15:00:00+00:00,788.0898640142933
2025-08-18 16:00:00+00:00,788.0898640142933
2025-08-18 17:00:00+00:00,788.0898640142933
2025-08-18 18:00:00+00:00,788.0898640142933
2025-08-18 19:00:00+00:00,788.0898640142933
2025-08-19 13:00:00+00:00,788.0898640142933
2025-08-19 14:00:00+00:00,788.0898640142933
2025-08-19 15:00:00+00:00,788.0898640142933
2025-08-19 16:00:00+00:00,788.0898640142933
2025-08-19 17:00:00+00:00,788.0898640142933
2025-08-19 18:00:00+00:00,788.0898640142933
2025-08-19 19:00:00+00:00,788.0898640142933
2025-08-20 13:00:00+00:00,788.0898640142933
2025-08-20 14:00:00+00:00,788.0898640142933
2025-08-20 15:00:00+00:00,788.0898640142933
2025-08-20 16:00:00+00:00,788.0898640142933
2025-08-20 17:00:00+00:00,788.0898640142933
2025-08-20 18:00:00+00:00,788.0898640142933
2025-08-20 19:00:00+00:00,788.0898640142933
2025-08-21 13:00:00+00:00,788.0898640142933
2025-08-21 14:00:00+00:00,788.0898640142933
2025-08-21 15:00:00+00:00,788.0898640142933
2025-08-21 16:00:00+00:00,788.0898640142933
2025-08-21 17:00:00+00:00,788.0898640142933
2025-08-21 18:00:00+00:00,788.0898640142933
2025-08-21 19:00:00+00:00,788.0898640142933
2025-08-22 13:00:00+00:00,788.0898640142933
2025-08-22 14:00:00+00:00,788.0898640142933
2025-08-22 15:00:00+00:00,788.0898640142933
2025-08-22 16:00:00+00:00,788.0898640142933
2025-08-22 17:00:00+00:00,788.0898640142933
2025-08-22 18:00:00+00:00,788.0898640142933
2025-08-22 19:00:00+00:00,788.0898640142933
2025-08-25 13:00:00+00:00,788.0898640142933
2025-08-25 14:00:00+00:00,788.0898640142933
2025-08-25 15:00:00+00:00,788.0898640142933
2025-08-25 16:00:00+00:00,788.0898640142933
2025-08-25 17:00:00+00:00,788.0898640142933
2025-08-25 18:00:00+00:00,788.0898640142933
2025-08-25 19:00:00+00:00,788.0898640142933
2025-08-26 13:00:00+00:00,788.0898640142933
2025-08-26 14:00:00+00:00,788.0898640142933
2025-08-26 15:00:00+00:00,788.0898640142933
2025-08-26 16:00:00+00:00,788.0898640142933
2025-08-26 17:00:00+00:00,788.0898640142933
2025-08-26 18:00:00+00:00,788.0898640142933
2025-08-26 19:00:00+00:00,788.0898640142933
2025-08-27 13:00:00+00:00,788.0898640142933
2025-08-27 14:00:00+00:00,788.0898640142933
2025-08-27 15:00:00+00:00,788.0898640142933
2025-08-27 16:00:00+00:00,788.0898640142933
2025-08-27 17:00:00+00:00,788.0898640142933
2025-08-27 18:00:00+00:00,788.0898640142933
2025-08-27 19:00:00+00:00,788.0898640142933
2025-08-28 13:00:00+00:00,788.0898640142933
2025-08-28 14:00:00+00:00,788.0898640142933
2025-08-28 15:00:00+00:00,788.0898640142933
2025-08-28 16:00:00+00:00,788.0898640142933
2025-08-28 17:00:00+00:00,788.0898640142933
2025-08-28 18:00:00+00:00,788.0898640142933
2025-08-28 19:00:00+00:00,788.0898640142933
2025-08-29 13:00:00+00:00,788.0898640142933
2025-08-29 14:00:00+00:00,788.0898640142933
2025-08-29 15:00:00+00:00,788.0898640142933
2025-08-29 16:00:00+00:00,788.0898640142933
2025-08-29 17:00:00+00:00,788.0898640142933
2025-08-29 18:00:00+00:00,788.0898640142933
2025-08-29 19:00:00+00:00,788.0898640142933
2025-09-02 13:00:00+00:00,788.0898640142933
2025-09-02 14:00:00+00:00,788.0898640142933
2025-09-02 15:00:00+00:00,788.0898640142933
2025-09-02 16:00:00+00:00,788.0898640142933
2025-09-02 17:00:00+00:00,788.0898640142933
2025-09-02 18:00:00+00:00,788.0898640142933
2025-09-02 19:00:00+00:00,788.0898640142933
2025-09-03 13:00:00+00:00,788.0898640142933
2025-09-03 14:00:00+00:00,788.0898640142933
2025-09-03 15:00:00+00:00,788.0898640142933
2025-09-03 16:00:00+00:00,788.0898640142933
2025-09-03 17:00:00+00:00,788.0898640142933
2025-09-03 18:00:00+00:00,788.0898640142933
2025-09-03 19:00:00+00:00,788.0898640142933
2025-09-04 13:00:00+00:00,788.0898640142933
2025-09-04 14:00:00+00:00,788.0898640142933
2025-09-04 15:00:00+00:00,788.0898640142933
2025-09-04 16:00:00+00:00,788.0898640142933
2025-09-04 17:00:00+00:00,788.0898640142933
2025-09-04 18:00:00+00:00,788.0898640142933
2025-09-04 19:00:00+00:00,788.0898640142933
2025-09-05 13:00:00+00:00,788.0898640142933
2025-09-05 14:00:00+00:00,788.0898640142933
2025-09-05 15:00:00+00:00,788.0898640142933
2025-09-05 16:00:00+00:00,788.0898640142933
2025-09-05 17:00:00+00:00,788.0898640142933
2025-09-05 18:00:00+00:00,788.0898640142933
2025-09-05 19:00:00+00:00,788.0898640142933
2025-09-08 13:00:00+00:00,788.0898640142933
2025-09-08 14:00:00+00:00,788.0898640142933
2025-09-08 15:00:00+00:00,788.0898640142933
2025-09-08 16:00:00+00:00,788.0898640142933
2025-09-08 17:00:00+00:00,788.0898640142933
2025-09-08 18:00:00+00:00,788.0898640142933
2025-09-08 19:00:00+00:00,788.0898640142933
2025-09-09 13:00:00+00:00,788.0898640142933
2025-09-09 14:00:00+00:00,788.0898640142933
2025-09-09 15:00:00+00:00,788.0898640142933
2025-09-09 16:00:00+00:00,788.0898640142933
2025-09-09 17:00:00+00:00,788.0898640142933
2025-09-09 18:00:00+00:00,788.0898640142933
2025-09-09 19:00:00+00:00,788.0898640142933
2025-09-10 13:00:00+00:00,788.0898640142933
2025-09-10 14:00:00+00:00,788.0898640142933
2025-09-10 15:00:00+00:00,788.0898640142933
2025-09-10 16:00:00+00:00,788.0898640142933
2025-09-10 17:00:00+00:00,788.0898640142933
2025-09-10 18:00:00+00:00,788.0898640142933
2025-09-10 19:00:00+00:00,788.0898640142933
2025-09-11 13:00:00+00:00,788.0898640142933
2025-09-11 14:00:00+00:00,788.0898640142933
2025-09-11 15:00:00+00:00,788.0898640142933
2025-09-11 16:00:00+00:00,788.0898640142933
2025-09-11 17:00:00+00:00,788.0898640142933
2025-09-11 18:00:00+00:00,788.0898640142933
2025-09-11 19:00:00+00:00,788.0898640142933
2025-09-12 13:00:00+00:00,788.0898640142933
2025-09-12 14:00:00+00:00,788.0898640142933
2025-09-12 15:00:00+00:00,788.0898640142933
2025-09-12 16:00:00+00:00,788.0898640142933
2025-09-12 17:00:00+00:00,788.0898640142933
2025-09-12 18:00:00+00:00,788.0898640142933
2025-09-12 19:00:00+00:00,788.0898640142933
2025-09-15 13:00:00+00:00,788.0898640142933
2025-09-15 14:00:00+00:00,788.0898640142933
2025-09-15 15:00:00+00:00,788.0898640142933
2025-09-15 16:00:00+00:00,788.0898640142933
2025-09-15 17:00:00+00:00,788.0898640142933
2025-09-15 18:00:00+00:00,788.0898640142933
2025-09-15 19:00:00+00:00,788.0898640142933
2025-09-16 13:00:00+00:00,788.0898640142933
2025-09-16 14:00:00+00:00,788.0898640142933
2025-09-16 15:00:00+00:00,788.0898640142933
2025-09-16 16:00:00+00:00,788.0898640142933
2025-09-16 17:00:00+00:00,788.0898640142933
2025-09-16 18:00:00+00:00,788.0898640142933
2025-09-16 19:00:00+00:00,788.0898640142933
2025-09-17 13:00:00+00:00,788.0898640142933
2025-09-17 14:00:00+00:00,788.0898640142933
2025-09-17 15:00:00+00:00,788.0898640142933
2025-09-17 16:00:00+00:00,788.0898640142933
2025-09-17 17:00:00+00:00,788.0898640142933
2025-09-17 18:00:00+00:00,788.0898640142933
2025-09-17 19:00:00+00:00,788.0898640142933
2025-09-18 13:00:00+00:00,788.0898640142933
2025-09-18 14:00:00+00:00,788.0898640142933
2025-09-18 15:00:00+00:00,788.0898640142933
2025-09-18 16:00:00+00:00,788.0898640142933
2025-09-18 17:00:00+00:00,788.0898640142933
2025-09-18 18:00:00+00:00,788.0898640142933
2025-09-18 19:00:00+00:00,788.0898640142933
2025-09-19 13:00:00+00:00,788.0898640142933
2025-09-19 14:00:00+00:00,788.0898640142933
2025-09-19 15:00:00+00:00,788.0898640142933
2025-09-19 16:00:00+00:00,788.0898640142933
2025-09-19 17:00:00+00:00,788.0898640142933
2025-09-19 18:00:00+00:00,788.0898640142933
2025-09-19 19:00:00+00:00,788.0898640142933
2025-09-22 13:00:00+00:00,788.0898640142933
2025-09-22 14:00:00+00:00,788.0898640142933
2025-09-22 15:00:00+00:00,788.0898640142933
2025-09-22 16:00:00+00:00,788.0898640142933
2025-09-22 17:00:00+00:00,788.0898640142933
2025-09-22 18:00:00+00:00,788.0898640142933
2025-09-22 19:00:00+00:00,788.0898640142933
2025-09-23 13:00:00+00:00,788.0898640142933
2025-09-23 14:00:00+00:00,788.0898640142933
2025-09-23 15:00:00+00:00,788.0898640142933
2025-09-23 16:00:00+00:00,788.0898640142933
2025-09-23 17:00:00+00:00,788.0898640142933
2025-09-23 18:00:00+00:00,788.0898640142933
2025-09-23 19:00:00+00:00,788.0898640142933
2025-09-24 13:00:00+00:00,788.0898640142933
2025-09-24 14:00:00+00:00,788.0898640142933
2025-09-24 15:00:00+00:00,788.0898640142933
2025-09-24 16:00:00+00:00,788.0898640142933
2025-09-24 17:00:00+00:00,788.0898640142933
2025-09-24 18:00:00+00:00,788.0898640142933
2025-09-24 19:00:00+00:00,788.0898640142933
2025-09-25 13:00:00+00:00,788.0898640142933
2025-09-25 14:00:00+00:00,788.0898640142933
2025-09-25 15:00:00+00:00,788.0898640142933
2025-09-25 16:00:00+00:00,788.0898640142933
2025-09-25 17:00:00+00:00,788.0898640142933
2025-09-25 18:00:00+00:00,788.0898640142933
2025-09-25 19:00:00+00:00,788.0898640142933
2025-09-26 13:00:00+00:00,788.0898640142933
2025-09-26 14:00:00+00:00,788.0898640142933
2025-09-26 15:00:00+00:00,788.0898640142933
2025-09-26 16:00:00+00:00,788.0898640142933
2025-09-26 17:00:00+00:00,788.0898640142933
2025-09-26 18:00:00+00:00,788.0898640142933
2025-09-26 19:00:00+00:00,788.0898640142933
2025-09-29 13:00:00+00:00,788.0898640142933
2025-09-29 14:00:00+00:00,788.0898640142933
2025-09-29 15:00:00+00:00,788.0898640142933
2025-09-29 16:00:00+00:00,788.0898640142933
2025-09-29 17:00:00+00:00,788.0898640142933
2025-09-29 18:00:00+00:00,788.0898640142933
2025-09-29 19:00:00+00:00,788.0898640142933
2025-09-30 13:00:00+00:00,788.0898640142933
2025-09-30 14:00:00+00:00,788.0898640142933
2025-09-30 15:00:00+00:00,788.0898640142933
2025-09-30 16:00:00+00:00,788.0898640142933
2025-09-30 17:00:00+00:00,788.0898640142933
2025-09-30 18:00:00+00:00,788.0898640142933
2025-09-30 19:00:00+00:00,788.0898640142933
2025-10-01 13:00:00+00:00,788.0898640142933
2025-10-01 14:00:00+00:00,788.0898640142933
2025-10-01 15:00:00+00:00,788.0898640142933
2025-10-01 16:00:00+00:00,788.0898640142933
2025-10-01 17:00:00+00:00,788.0898640142933
2025-10-01 18:00:00+00:00,788.0898640142933
2025-10-01 19:00:00+00:00,788.0898640142933
2025-10-02 13:00:00+00:00,788.0898640142933
2025-10-02 14:00:00+00:00,788.0898640142933
2025-10-02 15:00:00+00:00,788.0898640142933
2025-10-02 16:00:00+00:00,788.0898640142933
2025-10-02 17:00:00+00:00,788.0898640142933
2025-10-02 18:00:00+00:00,788.0898640142933
2025-10-02 19:00:00+00:00,788.0898640142933
2025-10-03 13:00:00+00:00,788.0898640142933
2025-10-03 14:00:00+00:00,788.0898640142933
2025-10-03 15:00:00+00:00,788.0898640142933
2025-10-03 16:00:00+00:00,788.0898640142933
2025-10-03 17:00:00+00:00,788.0898640142933
2025-10-03 18:00:00+00:00,788.0898640142933
2025-10-03 19:00:00+00:00,788.0898640142933
2025-10-06 13:00:00+00:00,788.0898640142933
2025-10-06 14:00:00+00:00,788.0898640142933
2025-10-06 15:00:00+00:00,788.0898640142933
2025-10-06 16:00:00+00:00,788.0898640142933
2025-10-06 17:00:00+00:00,788.0898640142933
2025-10-06 18:00:00+00:00,788.0898640142933
2025-10-06 19:00:00+00:00,788.0898640142933
2025-10-07 13:00:00+00:00,788.0898640142933
2025-10-07 14:00:00+00:00,788.0898640142933
2025-10-07 15:00:00+00:00,788.0898640142933
2025-10-07 16:00:00+00:00,788.0898640142933
2025-10-07 17:00:00+00:00,788.0898640142933
2025-10-07 18:00:00+00:00,788.0898640142933
2025-10-07 19:00:00+00:00,788.0898640142933
2025-10-08 13:00:00+00:00,788.0898640142933
2025-10-08 14:00:00+00:00,788.0898640142933
2025-10-08 15:00:00+00:00,788.0898640142933
2025-10-08 16:00:00+00:00,788.0898640142933
2025-10-08 17:00:00+00:00,788.0898640142933
2025-10-08 18:00:00+00:00,788.0898640142933
2025-10-08 19:00:00+00:00,788.0898640142933
2025-10-09 13:00:00+00:00,788.0898640142933
2025-10-09 14:00:00+00:00,788.0898640142933
2025-10-09 15:00:00+00:00,788.0898640142933
2025-10-09 16:00:00+00:00,788.0898640142933
2025-10-09 17:00:00+00:00,788.0898640142933
2025-10-09 18:00:00+00:00,788.0898640142933
2025-10-09 19:00:00+00:00,788.0898640142933
2025-10-10 13:00:00+00:00,788.0898640142933
2025-10-10 14:00:00+00:00,788.0898640142933
2025-10-10 15:00:00+00:00,788.0898640142933
2025-10-10 16:00:00+00:00,788.0898640142933
2025-10-10 17:00:00+00:00,788.0898640142933
2025-10-10 18:00:00+00:00,788.0898640142933
2025-10-10 19:00:00+00:00,788.0898640142933
2025-10-13 13:00:00+00:00,788.0898640142933
2025-10-13 14:00:00+00:00,788.0898640142933
2025-10-13 15:00:00+00:00,788.0898640142933
2025-10-13 16:00:00+00:00,788.0898640142933
2025-10-13 17:00:00+00:00,788.0898640142933
2025-10-13 18:00:00+00:00,788.0898640142933
2025-10-13 19:00:00+00:00,788.0898640142933
2025-10-14 13:00:00+00:00,788.0898640142933
2025-10-14 14:00:00+00:00,788.0898640142933
2025-10-14 15:00:00+00:00,788.0898640142933
2025-10-14 16:00:00+00:00,788.0898640142933
2025-10-14 17:00:00+00:00,788.0898640142933
2025-10-14 18:00:00+00:00,788.0898640142933
2025-10-14 19:00:00+00:00,788.0898640142933
2025-10-15 13:00:00+00:00,788.0898640142933
2025-10-15 14:00:00+00:00,788.0898640142933
2025-10-15 15:00:00+00:00,788.0898640142933
2025-10-15 16:00:00+00:00,788.0898640142933
2025-10-15 17:00:00+00:00,788.0898640142933
2025-10-15 18:00:00+00:00,788.0898640142933
2025-10-15 19:00:00+00:00,788.0898640142933
2025-10-16 13:00:00+00:00,788.0898640142933
2025-10-16 14:00:00+00:00,788.0898640142933
2025-10-16 15:00:00+00:00,788.0898640142933
2025-10-16 16:00:00+00:00,788.0898640142933
2025-10-16 17:00:00+00:00,788.0898640142933
2025-10-16 18:00:00+00:00,788.0898640142933
2025-10-16 19:00:00+00:00,788.0898640142933
2025-10-17 13:00:00+00:00,788.0898640142933
2025-10-17 14:00:00+00:00,788.0898640142933
2025-10-17 15:00:00+00:00,788.0898640142933
2025-10-17 16:00:00+00:00,788.0898640142933
2025-10-17 17:00:00+00:00,788.0898640142933
2025-10-17 18:00:00+00:00,788.0898640142933
2025-10-17 19:00:00+00:00,788.0898640142933
2025-10-20 13:00:00+00:00,788.0898640142933
2025-10-20 14:00:00+00:00,788.0898640142933
2025-10-20 15:00:00+00:00,788.0898640142933
2025-10-20 16:00:00+00:00,788.0898640142933
2025-10-20 17:00:00+00:00,788.0898640142933
2025-10-20 18:00:00+00:00,788.0898640142933
2025-10-20 19:00:00+00:00,788.0898640142933
2025-10-21 13:00:00+00:00,788.0898640142933
2025-10-21 14:00:00+00:00,788.0898640142933
2025-10-21 15:00:00+00:00,788.0898640142933
2025-10-21 16:00:00+00:00,788.0898640142933
2025-10-21 17:00:00+00:00,788.0898640142933
2025-10-21 18:00:00+00:00,788.0898640142933
2025-10-21 19:00:00+00:00,788.0898640142933
2025-10-22 13:00:00+00:00,788.0898640142933
2025-10-22 14:00:00+00:00,788.0898640142933
2025-10-22 15:00:00+00:00,788.0898640142933
2025-10-22 16:00:00+00:00,788.0898640142933
2025-10-22 17:00:00+00:00,788.0898640142933
2025-10-22 18:00:00+00:00,788.0898640142933
2025-10-22 19:00:00+00:00,788.0898640142933
