Date,0
2024-01-02 14:00:00+00:00,0.0
2024-01-02 15:00:00+00:00,0.0
2024-01-02 16:00:00+00:00,0.0
2024-01-02 17:00:00+00:00,0.0
2024-01-02 18:00:00+00:00,0.0
2024-01-02 19:00:00+00:00,0.0
2024-01-02 20:00:00+00:00,0.0
2024-01-03 14:00:00+00:00,0.0
2024-01-03 15:00:00+00:00,0.0
2024-01-03 16:00:00+00:00,0.0
2024-01-03 17:00:00+00:00,0.0
2024-01-03 18:00:00+00:00,0.0
2024-01-03 19:00:00+00:00,0.0
2024-01-03 20:00:00+00:00,0.0
2024-01-04 14:00:00+00:00,0.0
2024-01-04 15:00:00+00:00,0.0
2024-01-04 16:00:00+00:00,0.0
2024-01-04 17:00:00+00:00,0.0
2024-01-04 18:00:00+00:00,0.0
2024-01-04 19:00:00+00:00,0.0
2024-01-04 20:00:00+00:00,0.0
2024-01-05 14:00:00+00:00,0.0
2024-01-05 15:00:00+00:00,0.0
2024-01-05 16:00:00+00:00,0.0
2024-01-05 17:00:00+00:00,0.0
2024-01-05 18:00:00+00:00,0.0
2024-01-05 19:00:00+00:00,0.0
2024-01-05 20:00:00+00:00,0.0
2024-01-08 14:00:00+00:00,0.0
2024-01-08 15:00:00+00:00,0.0
2024-01-08 16:00:00+00:00,0.0
2024-01-08 17:00:00+00:00,0.0
2024-01-08 18:00:00+00:00,0.0
2024-01-08 19:00:00+00:00,0.0
2024-01-08 20:00:00+00:00,0.0
2024-01-09 14:00:00+00:00,0.0
2024-01-09 15:00:00+00:00,0.0
2024-01-09 16:00:00+00:00,0.0
2024-01-09 17:00:00+00:00,0.0
2024-01-09 18:00:00+00:00,0.0
2024-01-09 19:00:00+00:00,0.0
2024-01-09 20:00:00+00:00,0.0
2024-01-10 14:00:00+00:00,0.0
2024-01-10 15:00:00+00:00,0.0
2024-01-10 16:00:00+00:00,0.0
2024-01-10 17:00:00+00:00,0.0
2024-01-10 18:00:00+00:00,0.0
2024-01-10 19:00:00+00:00,0.0
2024-01-10 20:00:00+00:00,0.0
2024-01-11 14:00:00+00:00,0.0
2024-01-11 15:00:00+00:00,0.0
2024-01-11 16:00:00+00:00,0.0
2024-01-11 17:00:00+00:00,0.0
2024-01-11 18:00:00+00:00,0.0
2024-01-11 19:00:00+00:00,0.0
2024-01-11 20:00:00+00:00,0.0
2024-01-12 14:00:00+00:00,0.0
2024-01-12 15:00:00+00:00,0.0
2024-01-12 16:00:00+00:00,0.0
2024-01-12 17:00:00+00:00,0.0
2024-01-12 18:00:00+00:00,0.0
2024-01-12 19:00:00+00:00,0.0
2024-01-12 20:00:00+00:00,0.0
2024-01-16 14:00:00+00:00,0.0
2024-01-16 15:00:00+00:00,0.0
2024-01-16 16:00:00+00:00,0.0
2024-01-16 17:00:00+00:00,0.0
2024-01-16 18:00:00+00:00,0.0
2024-01-16 19:00:00+00:00,0.0
2024-01-16 20:00:00+00:00,0.0
2024-01-17 14:00:00+00:00,0.0
2024-01-17 15:00:00+00:00,0.0
2024-01-17 16:00:00+00:00,0.0
2024-01-17 17:00:00+00:00,0.0
2024-01-17 18:00:00+00:00,0.0
2024-01-17 19:00:00+00:00,0.0
2024-01-17 20:00:00+00:00,0.0
2024-01-18 14:00:00+00:00,0.0
2024-01-18 15:00:00+00:00,0.0
2024-01-18 16:00:00+00:00,0.0
2024-01-18 17:00:00+00:00,0.0
2024-01-18 18:00:00+00:00,0.0
2024-01-18 19:00:00+00:00,0.0
2024-01-18 20:00:00+00:00,0.0
2024-01-19 14:00:00+00:00,0.0
2024-01-19 15:00:00+00:00,0.0
2024-01-19 16:00:00+00:00,0.0
2024-01-19 17:00:00+00:00,0.0
2024-01-19 18:00:00+00:00,0.0
2024-01-19 19:00:00+00:00,0.0
2024-01-19 20:00:00+00:00,0.0
2024-01-22 14:00:00+00:00,0.0
2024-01-22 15:00:00+00:00,0.0
2024-01-22 16:00:00+00:00,0.0
2024-01-22 17:00:00+00:00,0.0
2024-01-22 18:00:00+00:00,0.0
2024-01-22 19:00:00+00:00,0.0
2024-01-22 20:00:00+00:00,0.0
2024-01-23 14:00:00+00:00,0.0
2024-01-23 15:00:00+00:00,0.0
2024-01-23 16:00:00+00:00,0.0
2024-01-23 17:00:00+00:00,0.0
2024-01-23 18:00:00+00:00,0.0
2024-01-23 19:00:00+00:00,0.0
2024-01-23 20:00:00+00:00,0.0
2024-01-24 14:00:00+00:00,0.0
2024-01-24 15:00:00+00:00,0.0
2024-01-24 16:00:00+00:00,0.0
2024-01-24 17:00:00+00:00,0.0
2024-01-24 18:00:00+00:00,0.0
2024-01-24 19:00:00+00:00,0.0
2024-01-24 20:00:00+00:00,0.0
2024-01-25 14:00:00+00:00,0.0
2024-01-25 15:00:00+00:00,0.0
2024-01-25 16:00:00+00:00,0.0
2024-01-25 17:00:00+00:00,0.0
2024-01-25 18:00:00+00:00,0.0
2024-01-25 19:00:00+00:00,0.0
2024-01-25 20:00:00+00:00,0.0
2024-01-26 14:00:00+00:00,0.0
2024-01-26 15:00:00+00:00,0.0
2024-01-26 16:00:00+00:00,0.0
2024-01-26 17:00:00+00:00,0.0
2024-01-26 18:00:00+00:00,0.0
2024-01-26 19:00:00+00:00,0.0
2024-01-26 20:00:00+00:00,0.0
2024-01-29 14:00:00+00:00,0.0
2024-01-29 15:00:00+00:00,0.0
2024-01-29 16:00:00+00:00,0.0
2024-01-29 17:00:00+00:00,0.0
2024-01-29 18:00:00+00:00,0.0
2024-01-29 19:00:00+00:00,0.0
2024-01-29 20:00:00+00:00,0.0
2024-01-30 14:00:00+00:00,0.0
2024-01-30 15:00:00+00:00,0.0
2024-01-30 16:00:00+00:00,0.0
2024-01-30 17:00:00+00:00,0.0
2024-01-30 18:00:00+00:00,0.0
2024-01-30 19:00:00+00:00,0.0
2024-01-30 20:00:00+00:00,0.0
2024-01-31 14:00:00+00:00,0.0
2024-01-31 15:00:00+00:00,0.0
2024-01-31 16:00:00+00:00,0.0
2024-01-31 17:00:00+00:00,0.0
2024-01-31 18:00:00+00:00,0.0
2024-01-31 19:00:00+00:00,0.0
2024-01-31 20:00:00+00:00,0.0
2024-02-01 14:00:00+00:00,0.0
2024-02-01 15:00:00+00:00,0.0
2024-02-01 16:00:00+00:00,0.0
2024-02-01 17:00:00+00:00,0.0
2024-02-01 18:00:00+00:00,0.0
2024-02-01 19:00:00+00:00,0.0
2024-02-01 20:00:00+00:00,0.0
2024-02-02 14:00:00+00:00,0.0
2024-02-02 15:00:00+00:00,0.0
2024-02-02 16:00:00+00:00,0.0
2024-02-02 17:00:00+00:00,0.0
2024-02-02 18:00:00+00:00,0.0
2024-02-02 19:00:00+00:00,0.0
2024-02-02 20:00:00+00:00,0.0
2024-02-05 14:00:00+00:00,0.0
2024-02-05 15:00:00+00:00,0.0
2024-02-05 16:00:00+00:00,0.0
2024-02-05 17:00:00+00:00,0.0
2024-02-05 18:00:00+00:00,0.0
2024-02-05 19:00:00+00:00,0.0
2024-02-05 20:00:00+00:00,0.0
2024-02-06 14:00:00+00:00,0.0
2024-02-06 15:00:00+00:00,0.0
2024-02-06 16:00:00+00:00,0.0
2024-02-06 17:00:00+00:00,0.0
2024-02-06 18:00:00+00:00,0.0
2024-02-06 19:00:00+00:00,0.0
2024-02-06 20:00:00+00:00,0.0
2024-02-07 14:00:00+00:00,0.0
2024-02-07 15:00:00+00:00,0.0
2024-02-07 16:00:00+00:00,0.0
2024-02-07 17:00:00+00:00,0.0
2024-02-07 18:00:00+00:00,0.0
2024-02-07 19:00:00+00:00,0.0
2024-02-07 20:00:00+00:00,0.0
2024-02-08 14:00:00+00:00,0.0
2024-02-08 15:00:00+00:00,0.0
2024-02-08 16:00:00+00:00,0.0
2024-02-08 17:00:00+00:00,0.0
2024-02-08 18:00:00+00:00,0.0
2024-02-08 19:00:00+00:00,0.0
2024-02-08 20:00:00+00:00,0.0
2024-02-09 14:00:00+00:00,0.0
2024-02-09 15:00:00+00:00,0.0
2024-02-09 16:00:00+00:00,0.0
2024-02-09 17:00:00+00:00,0.0
2024-02-09 18:00:00+00:00,0.0
2024-02-09 19:00:00+00:00,0.0
2024-02-09 20:00:00+00:00,0.0
2024-02-12 14:00:00+00:00,0.0
2024-02-12 15:00:00+00:00,0.0
2024-02-12 16:00:00+00:00,0.0
2024-02-12 17:00:00+00:00,0.0
2024-02-12 18:00:00+00:00,0.0
2024-02-12 19:00:00+00:00,0.0
2024-02-12 20:00:00+00:00,0.0
2024-02-13 14:00:00+00:00,0.0
2024-02-13 15:00:00+00:00,0.0
2024-02-13 16:00:00+00:00,0.0
2024-02-13 17:00:00+00:00,0.0
2024-02-13 18:00:00+00:00,0.0
2024-02-13 19:00:00+00:00,0.0
2024-02-13 20:00:00+00:00,0.0
2024-02-14 14:00:00+00:00,0.0
2024-02-14 15:00:00+00:00,0.0
2024-02-14 16:00:00+00:00,0.0
2024-02-14 17:00:00+00:00,0.0
2024-02-14 18:00:00+00:00,0.0
2024-02-14 19:00:00+00:00,0.0
2024-02-14 20:00:00+00:00,0.0
2024-02-15 14:00:00+00:00,0.0
2024-02-15 15:00:00+00:00,0.0
2024-02-15 16:00:00+00:00,0.0
2024-02-15 17:00:00+00:00,0.0
2024-02-15 18:00:00+00:00,0.0
2024-02-15 19:00:00+00:00,0.0
2024-02-15 20:00:00+00:00,0.0
2024-02-16 14:00:00+00:00,0.0
2024-02-16 15:00:00+00:00,0.0
2024-02-16 16:00:00+00:00,0.0
2024-02-16 17:00:00+00:00,0.0
2024-02-16 18:00:00+00:00,0.0
2024-02-16 19:00:00+00:00,0.0
2024-02-16 20:00:00+00:00,0.0
2024-02-20 14:00:00+00:00,0.0
2024-02-20 15:00:00+00:00,0.0
2024-02-20 16:00:00+00:00,0.0
2024-02-20 17:00:00+00:00,0.0
2024-02-20 18:00:00+00:00,0.0
2024-02-20 19:00:00+00:00,0.0
2024-02-20 20:00:00+00:00,0.0
2024-02-21 14:00:00+00:00,0.0
2024-02-21 15:00:00+00:00,0.0
2024-02-21 16:00:00+00:00,0.0
2024-02-21 17:00:00+00:00,0.0
2024-02-21 18:00:00+00:00,0.0
2024-02-21 19:00:00+00:00,0.0
2024-02-21 20:00:00+00:00,0.0
2024-02-22 14:00:00+00:00,0.0
2024-02-22 15:00:00+00:00,0.0
2024-02-22 16:00:00+00:00,0.0
2024-02-22 17:00:00+00:00,0.0
2024-02-22 18:00:00+00:00,0.0
2024-02-22 19:00:00+00:00,0.0
2024-02-22 20:00:00+00:00,0.0
2024-02-23 14:00:00+00:00,0.0
2024-02-23 15:00:00+00:00,0.0
2024-02-23 16:00:00+00:00,0.0
2024-02-23 17:00:00+00:00,0.0
2024-02-23 18:00:00+00:00,0.0
2024-02-23 19:00:00+00:00,0.0
2024-02-23 20:00:00+00:00,0.0
2024-02-26 14:00:00+00:00,0.0
2024-02-26 15:00:00+00:00,0.0
2024-02-26 16:00:00+00:00,0.0
2024-02-26 17:00:00+00:00,0.0
2024-02-26 18:00:00+00:00,0.0
2024-02-26 19:00:00+00:00,0.0
2024-02-26 20:00:00+00:00,0.0
2024-02-27 14:00:00+00:00,0.0
2024-02-27 15:00:00+00:00,0.0
2024-02-27 16:00:00+00:00,0.0
2024-02-27 17:00:00+00:00,0.0
2024-02-27 18:00:00+00:00,0.0
2024-02-27 19:00:00+00:00,0.0
2024-02-27 20:00:00+00:00,0.0
2024-02-28 14:00:00+00:00,0.0
2024-02-28 15:00:00+00:00,0.0
2024-02-28 16:00:00+00:00,0.0
2024-02-28 17:00:00+00:00,0.0
2024-02-28 18:00:00+00:00,0.0
2024-02-28 19:00:00+00:00,0.0
2024-02-28 20:00:00+00:00,0.0
2024-02-29 14:00:00+00:00,0.0
2024-02-29 15:00:00+00:00,0.0
2024-02-29 16:00:00+00:00,0.0
2024-02-29 17:00:00+00:00,0.0
2024-02-29 18:00:00+00:00,0.0
2024-02-29 19:00:00+00:00,0.0
2024-02-29 20:00:00+00:00,0.0
2024-03-01 14:00:00+00:00,0.0
2024-03-01 15:00:00+00:00,0.0
2024-03-01 16:00:00+00:00,0.0
2024-03-01 17:00:00+00:00,0.0
2024-03-01 18:00:00+00:00,0.0
2024-03-01 19:00:00+00:00,0.0
2024-03-01 20:00:00+00:00,0.0
2024-03-04 14:00:00+00:00,0.0
2024-03-04 15:00:00+00:00,0.0
2024-03-04 16:00:00+00:00,0.0
2024-03-04 17:00:00+00:00,0.0
2024-03-04 18:00:00+00:00,0.0
2024-03-04 19:00:00+00:00,0.0
2024-03-04 20:00:00+00:00,0.0
2024-03-05 14:00:00+00:00,0.0
2024-03-05 15:00:00+00:00,0.0
2024-03-05 16:00:00+00:00,0.0
2024-03-05 17:00:00+00:00,0.0
2024-03-05 18:00:00+00:00,0.0
2024-03-05 19:00:00+00:00,0.0
2024-03-05 20:00:00+00:00,0.0
2024-03-06 14:00:00+00:00,0.0
2024-03-06 15:00:00+00:00,0.0
2024-03-06 16:00:00+00:00,0.0
2024-03-06 17:00:00+00:00,0.0
2024-03-06 18:00:00+00:00,0.0
2024-03-06 19:00:00+00:00,0.0
2024-03-06 20:00:00+00:00,0.0
2024-03-07 14:00:00+00:00,0.0
2024-03-07 15:00:00+00:00,0.0
2024-03-07 16:00:00+00:00,0.0
2024-03-07 17:00:00+00:00,0.0
2024-03-07 18:00:00+00:00,0.0
2024-03-07 19:00:00+00:00,0.0
2024-03-07 20:00:00+00:00,0.0
2024-03-08 14:00:00+00:00,0.0
2024-03-08 15:00:00+00:00,0.0
2024-03-08 16:00:00+00:00,0.0
2024-03-08 17:00:00+00:00,0.0
2024-03-08 18:00:00+00:00,0.0
2024-03-08 19:00:00+00:00,0.0
2024-03-08 20:00:00+00:00,0.0
2024-03-11 13:00:00+00:00,0.0
2024-03-11 14:00:00+00:00,0.0
2024-03-11 15:00:00+00:00,0.0
2024-03-11 16:00:00+00:00,0.0
2024-03-11 17:00:00+00:00,0.0
2024-03-11 18:00:00+00:00,0.0
2024-03-11 19:00:00+00:00,0.0
2024-03-12 13:00:00+00:00,0.0
2024-03-12 14:00:00+00:00,0.0
2024-03-12 15:00:00+00:00,0.0
2024-03-12 16:00:00+00:00,0.0
2024-03-12 17:00:00+00:00,0.0
2024-03-12 18:00:00+00:00,0.0
2024-03-12 19:00:00+00:00,0.0
2024-03-13 13:00:00+00:00,0.0
2024-03-13 14:00:00+00:00,0.0
2024-03-13 15:00:00+00:00,0.0
2024-03-13 16:00:00+00:00,0.0
2024-03-13 17:00:00+00:00,0.0
2024-03-13 18:00:00+00:00,0.0
2024-03-13 19:00:00+00:00,0.0
2024-03-14 13:00:00+00:00,0.0
2024-03-14 14:00:00+00:00,0.0
2024-03-14 15:00:00+00:00,0.0
2024-03-14 16:00:00+00:00,0.0
2024-03-14 17:00:00+00:00,0.0
2024-03-14 18:00:00+00:00,0.0
2024-03-14 19:00:00+00:00,0.0
2024-03-15 13:00:00+00:00,0.0
2024-03-15 14:00:00+00:00,0.0
2024-03-15 15:00:00+00:00,0.0
2024-03-15 16:00:00+00:00,0.0
2024-03-15 17:00:00+00:00,0.0
2024-03-15 18:00:00+00:00,0.0
2024-03-15 19:00:00+00:00,0.0
2024-03-18 13:00:00+00:00,0.0
2024-03-18 14:00:00+00:00,0.0
2024-03-18 15:00:00+00:00,0.0
2024-03-18 16:00:00+00:00,0.0
2024-03-18 17:00:00+00:00,0.0
2024-03-18 18:00:00+00:00,0.0
2024-03-18 19:00:00+00:00,0.0
2024-03-19 13:00:00+00:00,0.0
2024-03-19 14:00:00+00:00,0.0
2024-03-19 15:00:00+00:00,0.0
2024-03-19 16:00:00+00:00,0.0
2024-03-19 17:00:00+00:00,0.0
2024-03-19 18:00:00+00:00,0.0
2024-03-19 19:00:00+00:00,0.0
2024-03-20 13:00:00+00:00,0.0
2024-03-20 14:00:00+00:00,0.0
2024-03-20 15:00:00+00:00,0.0
2024-03-20 16:00:00+00:00,0.0
2024-03-20 17:00:00+00:00,0.0
2024-03-20 18:00:00+00:00,0.0
2024-03-20 19:00:00+00:00,0.0
2024-03-21 13:00:00+00:00,0.0
2024-03-21 14:00:00+00:00,0.0
2024-03-21 15:00:00+00:00,0.0
2024-03-21 16:00:00+00:00,0.0
2024-03-21 17:00:00+00:00,0.0
2024-03-21 18:00:00+00:00,0.0
2024-03-21 19:00:00+00:00,0.0
2024-03-22 13:00:00+00:00,0.0
2024-03-22 14:00:00+00:00,0.0
2024-03-22 15:00:00+00:00,0.0
2024-03-22 16:00:00+00:00,0.0
2024-03-22 17:00:00+00:00,0.0
2024-03-22 18:00:00+00:00,0.0
2024-03-22 19:00:00+00:00,0.0
2024-03-25 13:00:00+00:00,0.0
2024-03-25 14:00:00+00:00,0.0
2024-03-25 15:00:00+00:00,0.0
2024-03-25 16:00:00+00:00,0.0
2024-03-25 17:00:00+00:00,0.0
2024-03-25 18:00:00+00:00,0.0
2024-03-25 19:00:00+00:00,0.0
2024-03-26 13:00:00+00:00,0.0
2024-03-26 14:00:00+00:00,0.0
2024-03-26 15:00:00+00:00,0.0
2024-03-26 16:00:00+00:00,0.0
2024-03-26 17:00:00+00:00,0.0
2024-03-26 18:00:00+00:00,0.0
2024-03-26 19:00:00+00:00,0.0
2024-03-27 13:00:00+00:00,0.0
2024-03-27 14:00:00+00:00,0.0
2024-03-27 15:00:00+00:00,0.0
2024-03-27 16:00:00+00:00,0.0
2024-03-27 17:00:00+00:00,0.0
2024-03-27 18:00:00+00:00,0.0
2024-03-27 19:00:00+00:00,0.0
2024-03-28 13:00:00+00:00,0.0
2024-03-28 14:00:00+00:00,0.0
2024-03-28 15:00:00+00:00,0.0
2024-03-28 16:00:00+00:00,0.0
2024-03-28 17:00:00+00:00,0.0
2024-03-28 18:00:00+00:00,0.0
2024-03-28 19:00:00+00:00,0.0
2024-04-01 13:00:00+00:00,0.0
2024-04-01 14:00:00+00:00,0.0
2024-04-01 15:00:00+00:00,0.0
2024-04-01 16:00:00+00:00,0.0
2024-04-01 17:00:00+00:00,0.0
2024-04-01 18:00:00+00:00,0.0
2024-04-01 19:00:00+00:00,0.0
2024-04-02 13:00:00+00:00,0.0
2024-04-02 14:00:00+00:00,0.0
2024-04-02 15:00:00+00:00,0.0
2024-04-02 16:00:00+00:00,0.0
2024-04-02 17:00:00+00:00,0.0
2024-04-02 18:00:00+00:00,0.0
2024-04-02 19:00:00+00:00,0.0
2024-04-03 13:00:00+00:00,0.0
2024-04-03 14:00:00+00:00,0.0
2024-04-03 15:00:00+00:00,0.0
2024-04-03 16:00:00+00:00,0.0
2024-04-03 17:00:00+00:00,0.0
2024-04-03 18:00:00+00:00,0.0
2024-04-03 19:00:00+00:00,0.0
2024-04-04 13:00:00+00:00,0.0
2024-04-04 14:00:00+00:00,0.0
2024-04-04 15:00:00+00:00,0.0
2024-04-04 16:00:00+00:00,0.0
2024-04-04 17:00:00+00:00,0.0
2024-04-04 18:00:00+00:00,0.0
2024-04-04 19:00:00+00:00,0.0
2024-04-05 13:00:00+00:00,0.0
2024-04-05 14:00:00+00:00,0.0
2024-04-05 15:00:00+00:00,0.0
2024-04-05 16:00:00+00:00,0.0
2024-04-05 17:00:00+00:00,0.0
2024-04-05 18:00:00+00:00,0.0
2024-04-05 19:00:00+00:00,0.0
2024-04-08 13:00:00+00:00,0.0
2024-04-08 14:00:00+00:00,0.0
2024-04-08 15:00:00+00:00,0.0
2024-04-08 16:00:00+00:00,0.0
2024-04-08 17:00:00+00:00,0.0
2024-04-08 18:00:00+00:00,0.0
2024-04-08 19:00:00+00:00,0.0
2024-04-09 13:00:00+00:00,0.0
2024-04-09 14:00:00+00:00,0.0
2024-04-09 15:00:00+00:00,0.0
2024-04-09 16:00:00+00:00,0.0
2024-04-09 17:00:00+00:00,0.0
2024-04-09 18:00:00+00:00,0.0
2024-04-09 19:00:00+00:00,0.0
2024-04-10 13:00:00+00:00,0.0
2024-04-10 14:00:00+00:00,0.0
2024-04-10 15:00:00+00:00,0.0
2024-04-10 16:00:00+00:00,0.0
2024-04-10 17:00:00+00:00,0.0
2024-04-10 18:00:00+00:00,0.0
2024-04-10 19:00:00+00:00,0.0
2024-04-11 13:00:00+00:00,0.0
2024-04-11 14:00:00+00:00,0.0
2024-04-11 15:00:00+00:00,0.0
2024-04-11 16:00:00+00:00,0.0
2024-04-11 17:00:00+00:00,0.0
2024-04-11 18:00:00+00:00,0.0
2024-04-11 19:00:00+00:00,0.0
2024-04-12 13:00:00+00:00,0.0
2024-04-12 14:00:00+00:00,0.0
2024-04-12 15:00:00+00:00,0.0
2024-04-12 16:00:00+00:00,0.0
2024-04-12 17:00:00+00:00,0.0
2024-04-12 18:00:00+00:00,0.0
2024-04-12 19:00:00+00:00,0.0
2024-04-15 13:00:00+00:00,0.0
2024-04-15 14:00:00+00:00,0.0
2024-04-15 15:00:00+00:00,0.0
2024-04-15 16:00:00+00:00,0.0
2024-04-15 17:00:00+00:00,0.0
2024-04-15 18:00:00+00:00,0.0
2024-04-15 19:00:00+00:00,0.0
2024-04-16 13:00:00+00:00,0.0
2024-04-16 14:00:00+00:00,0.0
2024-04-16 15:00:00+00:00,0.0
2024-04-16 16:00:00+00:00,0.0
2024-04-16 17:00:00+00:00,0.0
2024-04-16 18:00:00+00:00,0.0
2024-04-16 19:00:00+00:00,0.0
2024-04-17 13:00:00+00:00,0.0
2024-04-17 14:00:00+00:00,0.0
2024-04-17 15:00:00+00:00,0.0
2024-04-17 16:00:00+00:00,0.0
2024-04-17 17:00:00+00:00,0.0
2024-04-17 18:00:00+00:00,0.0
2024-04-17 19:00:00+00:00,0.0
2024-04-18 13:00:00+00:00,0.0
2024-04-18 14:00:00+00:00,0.0
2024-04-18 15:00:00+00:00,0.0
2024-04-18 16:00:00+00:00,0.0
2024-04-18 17:00:00+00:00,0.0
2024-04-18 18:00:00+00:00,0.0
2024-04-18 19:00:00+00:00,0.0
2024-04-19 13:00:00+00:00,0.0
2024-04-19 14:00:00+00:00,0.0
2024-04-19 15:00:00+00:00,0.0
2024-04-19 16:00:00+00:00,0.0
2024-04-19 17:00:00+00:00,0.0
2024-04-19 18:00:00+00:00,0.0
2024-04-19 19:00:00+00:00,0.0
2024-04-22 13:00:00+00:00,0.0
2024-04-22 14:00:00+00:00,0.0
2024-04-22 15:00:00+00:00,0.0
2024-04-22 16:00:00+00:00,0.0
2024-04-22 17:00:00+00:00,0.0
2024-04-22 18:00:00+00:00,0.0
2024-04-22 19:00:00+00:00,0.0
2024-04-23 13:00:00+00:00,0.0
2024-04-23 14:00:00+00:00,0.0
2024-04-23 15:00:00+00:00,0.0
2024-04-23 16:00:00+00:00,0.0
2024-04-23 17:00:00+00:00,0.0
2024-04-23 18:00:00+00:00,0.0
2024-04-23 19:00:00+00:00,0.0
2024-04-24 13:00:00+00:00,0.0
2024-04-24 14:00:00+00:00,0.0
2024-04-24 15:00:00+00:00,0.0
2024-04-24 16:00:00+00:00,0.0
2024-04-24 17:00:00+00:00,0.0
2024-04-24 18:00:00+00:00,0.0
2024-04-24 19:00:00+00:00,0.0
2024-04-25 13:00:00+00:00,0.0
2024-04-25 14:00:00+00:00,0.0
2024-04-25 15:00:00+00:00,0.0
2024-04-25 16:00:00+00:00,0.0
2024-04-25 17:00:00+00:00,0.0
2024-04-25 18:00:00+00:00,0.0
2024-04-25 19:00:00+00:00,0.0
2024-04-26 13:00:00+00:00,0.0
2024-04-26 14:00:00+00:00,0.0
2024-04-26 15:00:00+00:00,0.0
2024-04-26 16:00:00+00:00,0.0
2024-04-26 17:00:00+00:00,0.0
2024-04-26 18:00:00+00:00,0.0
2024-04-26 19:00:00+00:00,0.0
2024-04-29 13:00:00+00:00,0.0
2024-04-29 14:00:00+00:00,0.0
2024-04-29 15:00:00+00:00,0.0
2024-04-29 16:00:00+00:00,0.0
2024-04-29 17:00:00+00:00,0.0
2024-04-29 18:00:00+00:00,0.0
2024-04-29 19:00:00+00:00,0.0
2024-04-30 13:00:00+00:00,0.0
2024-04-30 14:00:00+00:00,0.0
2024-04-30 15:00:00+00:00,0.0
2024-04-30 16:00:00+00:00,0.0
2024-04-30 17:00:00+00:00,0.0
2024-04-30 18:00:00+00:00,0.0
2024-04-30 19:00:00+00:00,0.0
2024-05-01 13:00:00+00:00,0.0
2024-05-01 14:00:00+00:00,0.0
2024-05-01 15:00:00+00:00,0.0
2024-05-01 16:00:00+00:00,0.0
2024-05-01 17:00:00+00:00,0.0
2024-05-01 18:00:00+00:00,0.0
2024-05-01 19:00:00+00:00,0.0
2024-05-02 13:00:00+00:00,0.0
2024-05-02 14:00:00+00:00,0.0
2024-05-02 15:00:00+00:00,0.0
2024-05-02 16:00:00+00:00,0.0
2024-05-02 17:00:00+00:00,0.0
2024-05-02 18:00:00+00:00,0.0
2024-05-02 19:00:00+00:00,0.0
2024-05-03 13:00:00+00:00,0.0
2024-05-03 14:00:00+00:00,0.0
2024-05-03 15:00:00+00:00,0.0
2024-05-03 16:00:00+00:00,0.0
2024-05-03 17:00:00+00:00,0.0
2024-05-03 18:00:00+00:00,0.0
2024-05-03 19:00:00+00:00,0.0
2024-05-06 13:00:00+00:00,0.0
2024-05-06 14:00:00+00:00,0.0
2024-05-06 15:00:00+00:00,0.0
2024-05-06 16:00:00+00:00,0.0
2024-05-06 17:00:00+00:00,0.0
2024-05-06 18:00:00+00:00,0.0
2024-05-06 19:00:00+00:00,0.0
2024-05-07 13:00:00+00:00,0.0
2024-05-07 14:00:00+00:00,0.0
2024-05-07 15:00:00+00:00,0.0
2024-05-07 16:00:00+00:00,0.0
2024-05-07 17:00:00+00:00,0.0
2024-05-07 18:00:00+00:00,0.0
2024-05-07 19:00:00+00:00,0.0
2024-05-08 13:00:00+00:00,0.0
2024-05-08 14:00:00+00:00,0.0
2024-05-08 15:00:00+00:00,0.0
2024-05-08 16:00:00+00:00,0.0
2024-05-08 17:00:00+00:00,0.0
2024-05-08 18:00:00+00:00,0.0
2024-05-08 19:00:00+00:00,0.0
2024-05-09 13:00:00+00:00,0.0
2024-05-09 14:00:00+00:00,0.0
2024-05-09 15:00:00+00:00,0.0
2024-05-09 16:00:00+00:00,0.0
2024-05-09 17:00:00+00:00,0.0
2024-05-09 18:00:00+00:00,0.0
2024-05-09 19:00:00+00:00,0.0
2024-05-10 13:00:00+00:00,0.0
2024-05-10 14:00:00+00:00,0.0
2024-05-10 15:00:00+00:00,0.0
2024-05-10 16:00:00+00:00,0.0
2024-05-10 17:00:00+00:00,0.0
2024-05-10 18:00:00+00:00,0.0
2024-05-10 19:00:00+00:00,0.0
2024-05-13 13:00:00+00:00,0.0
2024-05-13 14:00:00+00:00,0.0
2024-05-13 15:00:00+00:00,0.0
2024-05-13 16:00:00+00:00,0.0
2024-05-13 17:00:00+00:00,0.0
2024-05-13 18:00:00+00:00,0.0
2024-05-13 19:00:00+00:00,0.0
2024-05-14 13:00:00+00:00,0.0
2024-05-14 14:00:00+00:00,0.0
2024-05-14 15:00:00+00:00,0.0
2024-05-14 16:00:00+00:00,0.0
2024-05-14 17:00:00+00:00,0.0
2024-05-14 18:00:00+00:00,0.0
2024-05-14 19:00:00+00:00,0.0
2024-05-15 13:00:00+00:00,0.0
2024-05-15 14:00:00+00:00,0.0
2024-05-15 15:00:00+00:00,0.0
2024-05-15 16:00:00+00:00,0.0
2024-05-15 17:00:00+00:00,0.0
2024-05-15 18:00:00+00:00,0.0
2024-05-15 19:00:00+00:00,0.0
2024-05-16 13:00:00+00:00,0.0
2024-05-16 14:00:00+00:00,0.0
2024-05-16 15:00:00+00:00,0.0
2024-05-16 16:00:00+00:00,0.0
2024-05-16 17:00:00+00:00,0.0
2024-05-16 18:00:00+00:00,0.0
2024-05-16 19:00:00+00:00,0.0
2024-05-17 13:00:00+00:00,0.0
2024-05-17 14:00:00+00:00,0.0
2024-05-17 15:00:00+00:00,0.0
2024-05-17 16:00:00+00:00,0.0
2024-05-17 17:00:00+00:00,0.0
2024-05-17 18:00:00+00:00,0.0
2024-05-17 19:00:00+00:00,0.0
2024-05-20 13:00:00+00:00,0.0
2024-05-20 14:00:00+00:00,0.0
2024-05-20 15:00:00+00:00,0.0
2024-05-20 16:00:00+00:00,0.0
2024-05-20 17:00:00+00:00,0.0
2024-05-20 18:00:00+00:00,0.0
2024-05-20 19:00:00+00:00,0.0
2024-05-21 13:00:00+00:00,0.0
2024-05-21 14:00:00+00:00,0.0
2024-05-21 15:00:00+00:00,0.0
2024-05-21 16:00:00+00:00,0.0
2024-05-21 17:00:00+00:00,0.0
2024-05-21 18:00:00+00:00,0.0
2024-05-21 19:00:00+00:00,0.0
2024-05-22 13:00:00+00:00,0.0
2024-05-22 14:00:00+00:00,0.0
2024-05-22 15:00:00+00:00,0.0
2024-05-22 16:00:00+00:00,0.0
2024-05-22 17:00:00+00:00,0.0
2024-05-22 18:00:00+00:00,0.0
2024-05-22 19:00:00+00:00,0.0
2024-05-23 13:00:00+00:00,0.0
2024-05-23 14:00:00+00:00,0.0
2024-05-23 15:00:00+00:00,0.0
2024-05-23 16:00:00+00:00,0.0
2024-05-23 17:00:00+00:00,0.0
2024-05-23 18:00:00+00:00,0.0
2024-05-23 19:00:00+00:00,0.0
2024-05-24 13:00:00+00:00,0.0
2024-05-24 14:00:00+00:00,0.0
2024-05-24 15:00:00+00:00,0.0
2024-05-24 16:00:00+00:00,0.0
2024-05-24 17:00:00+00:00,0.0
2024-05-24 18:00:00+00:00,0.0
2024-05-24 19:00:00+00:00,0.0
2024-05-28 13:00:00+00:00,0.0
2024-05-28 14:00:00+00:00,0.0
2024-05-28 15:00:00+00:00,0.0
2024-05-28 16:00:00+00:00,0.0
2024-05-28 17:00:00+00:00,0.0
2024-05-28 18:00:00+00:00,0.0
2024-05-28 19:00:00+00:00,0.0
2024-05-29 13:00:00+00:00,0.0
2024-05-29 14:00:00+00:00,0.0
2024-05-29 15:00:00+00:00,0.0
2024-05-29 16:00:00+00:00,0.0
2024-05-29 17:00:00+00:00,0.0
2024-05-29 18:00:00+00:00,0.0
2024-05-29 19:00:00+00:00,0.0
2024-05-30 13:00:00+00:00,0.0
2024-05-30 14:00:00+00:00,0.0
2024-05-30 15:00:00+00:00,0.0
2024-05-30 16:00:00+00:00,0.0
2024-05-30 17:00:00+00:00,0.0
2024-05-30 18:00:00+00:00,0.0
2024-05-30 19:00:00+00:00,0.0
2024-05-31 13:00:00+00:00,0.0
2024-05-31 14:00:00+00:00,0.0
2024-05-31 15:00:00+00:00,0.0
2024-05-31 16:00:00+00:00,0.0
2024-05-31 17:00:00+00:00,0.0
2024-05-31 18:00:00+00:00,0.0
2024-05-31 19:00:00+00:00,0.0
2024-06-03 13:00:00+00:00,0.0
2024-06-03 14:00:00+00:00,0.0
2024-06-03 15:00:00+00:00,0.0
2024-06-03 16:00:00+00:00,0.0
2024-06-03 17:00:00+00:00,0.0
2024-06-03 18:00:00+00:00,0.0
2024-06-03 19:00:00+00:00,0.0
2024-06-04 13:00:00+00:00,0.0
2024-06-04 14:00:00+00:00,0.0
2024-06-04 15:00:00+00:00,0.0
2024-06-04 16:00:00+00:00,0.0
2024-06-04 17:00:00+00:00,0.0
2024-06-04 18:00:00+00:00,0.0
2024-06-04 19:00:00+00:00,0.0
2024-06-05 13:00:00+00:00,0.0
2024-06-05 14:00:00+00:00,0.0
2024-06-05 15:00:00+00:00,0.0
2024-06-05 16:00:00+00:00,0.0
2024-06-05 17:00:00+00:00,0.0
2024-06-05 18:00:00+00:00,0.0
2024-06-05 19:00:00+00:00,0.0
2024-06-06 13:00:00+00:00,0.0
2024-06-06 14:00:00+00:00,0.0
2024-06-06 15:00:00+00:00,0.0
2024-06-06 16:00:00+00:00,0.0
2024-06-06 17:00:00+00:00,0.0
2024-06-06 18:00:00+00:00,0.0
2024-06-06 19:00:00+00:00,0.0
2024-06-07 13:00:00+00:00,0.0
2024-06-07 14:00:00+00:00,0.0
2024-06-07 15:00:00+00:00,0.0
2024-06-07 16:00:00+00:00,0.0
2024-06-07 17:00:00+00:00,0.0
2024-06-07 18:00:00+00:00,0.0
2024-06-07 19:00:00+00:00,0.0
2024-06-10 13:00:00+00:00,0.0
2024-06-10 14:00:00+00:00,0.0
2024-06-10 15:00:00+00:00,0.0
2024-06-10 16:00:00+00:00,0.0
2024-06-10 17:00:00+00:00,0.0
2024-06-10 18:00:00+00:00,0.0
2024-06-10 19:00:00+00:00,0.0
2024-06-11 13:00:00+00:00,0.0
2024-06-11 14:00:00+00:00,0.0
2024-06-11 15:00:00+00:00,0.0
2024-06-11 16:00:00+00:00,0.0
2024-06-11 17:00:00+00:00,0.0
2024-06-11 18:00:00+00:00,0.0
2024-06-11 19:00:00+00:00,0.0
2024-06-12 13:00:00+00:00,0.0
2024-06-12 14:00:00+00:00,0.0
2024-06-12 15:00:00+00:00,0.0
2024-06-12 16:00:00+00:00,0.0
2024-06-12 17:00:00+00:00,0.0
2024-06-12 18:00:00+00:00,0.0
2024-06-12 19:00:00+00:00,0.0
2024-06-13 13:00:00+00:00,0.0
2024-06-13 14:00:00+00:00,0.0
2024-06-13 15:00:00+00:00,0.0
2024-06-13 16:00:00+00:00,0.0
2024-06-13 17:00:00+00:00,0.0
2024-06-13 18:00:00+00:00,0.0
2024-06-13 19:00:00+00:00,0.0
2024-06-14 13:00:00+00:00,0.0
2024-06-14 14:00:00+00:00,0.0
2024-06-14 15:00:00+00:00,0.0
2024-06-14 16:00:00+00:00,0.0
2024-06-14 17:00:00+00:00,0.0
2024-06-14 18:00:00+00:00,0.0
2024-06-14 19:00:00+00:00,0.0
2024-06-17 13:00:00+00:00,0.0
2024-06-17 14:00:00+00:00,0.0
2024-06-17 15:00:00+00:00,0.0
2024-06-17 16:00:00+00:00,0.0
2024-06-17 17:00:00+00:00,0.0
2024-06-17 18:00:00+00:00,0.0
2024-06-17 19:00:00+00:00,0.0
2024-06-18 13:00:00+00:00,0.0
2024-06-18 14:00:00+00:00,0.0
2024-06-18 15:00:00+00:00,0.0
2024-06-18 16:00:00+00:00,0.0
2024-06-18 17:00:00+00:00,0.0
2024-06-18 18:00:00+00:00,0.0
2024-06-18 19:00:00+00:00,0.0
2024-06-20 13:00:00+00:00,0.0
2024-06-20 14:00:00+00:00,0.0
2024-06-20 15:00:00+00:00,0.0
2024-06-20 16:00:00+00:00,0.0
2024-06-20 17:00:00+00:00,0.0
2024-06-20 18:00:00+00:00,0.0
2024-06-20 19:00:00+00:00,0.0
2024-06-21 13:00:00+00:00,0.0
2024-06-21 14:00:00+00:00,0.0
2024-06-21 15:00:00+00:00,0.0
2024-06-21 16:00:00+00:00,0.0
2024-06-21 17:00:00+00:00,0.0
2024-06-21 18:00:00+00:00,0.0
2024-06-21 19:00:00+00:00,0.0
2024-06-24 13:00:00+00:00,0.0
2024-06-24 14:00:00+00:00,0.0
2024-06-24 15:00:00+00:00,0.0
2024-06-24 16:00:00+00:00,0.0
2024-06-24 17:00:00+00:00,0.0
2024-06-24 18:00:00+00:00,0.0
2024-06-24 19:00:00+00:00,0.0
2024-06-25 13:00:00+00:00,0.0
2024-06-25 14:00:00+00:00,0.0
2024-06-25 15:00:00+00:00,0.0
2024-06-25 16:00:00+00:00,0.0
2024-06-25 17:00:00+00:00,0.0
2024-06-25 18:00:00+00:00,0.0
2024-06-25 19:00:00+00:00,0.0
2024-06-26 13:00:00+00:00,0.0
2024-06-26 14:00:00+00:00,0.0
2024-06-26 15:00:00+00:00,0.0
2024-06-26 16:00:00+00:00,0.0
2024-06-26 17:00:00+00:00,0.0
2024-06-26 18:00:00+00:00,0.0
2024-06-26 19:00:00+00:00,0.0
2024-06-27 13:00:00+00:00,0.0
2024-06-27 14:00:00+00:00,0.0
2024-06-27 15:00:00+00:00,0.0
2024-06-27 16:00:00+00:00,0.0
2024-06-27 17:00:00+00:00,0.0
2024-06-27 18:00:00+00:00,0.0
2024-06-27 19:00:00+00:00,0.0
2024-06-28 13:00:00+00:00,0.0
2024-06-28 14:00:00+00:00,0.0
2024-06-28 15:00:00+00:00,0.0
2024-06-28 16:00:00+00:00,0.0
2024-06-28 17:00:00+00:00,0.0
2024-06-28 18:00:00+00:00,0.0
2024-06-28 19:00:00+00:00,0.0
2024-07-01 13:00:00+00:00,0.0
2024-07-01 14:00:00+00:00,0.0
2024-07-01 15:00:00+00:00,0.0
2024-07-01 16:00:00+00:00,0.0
2024-07-01 17:00:00+00:00,0.0
2024-07-01 18:00:00+00:00,0.0
2024-07-01 19:00:00+00:00,0.0
2024-07-02 13:00:00+00:00,0.0
2024-07-02 14:00:00+00:00,0.0
2024-07-02 15:00:00+00:00,0.0
2024-07-02 16:00:00+00:00,0.0
2024-07-02 17:00:00+00:00,0.0
2024-07-02 18:00:00+00:00,0.0
2024-07-02 19:00:00+00:00,0.0
2024-07-03 13:00:00+00:00,0.0
2024-07-03 14:00:00+00:00,0.0
2024-07-03 15:00:00+00:00,0.0
2024-07-05 13:00:00+00:00,0.0
2024-07-05 14:00:00+00:00,0.0
2024-07-05 15:00:00+00:00,0.0
2024-07-05 16:00:00+00:00,0.0
2024-07-05 17:00:00+00:00,0.0
2024-07-05 18:00:00+00:00,0.0
2024-07-05 19:00:00+00:00,0.0
2024-07-08 13:00:00+00:00,0.0
2024-07-08 14:00:00+00:00,0.0
2024-07-08 15:00:00+00:00,0.0
2024-07-08 16:00:00+00:00,0.0
2024-07-08 17:00:00+00:00,0.0
2024-07-08 18:00:00+00:00,0.0
2024-07-08 19:00:00+00:00,0.0
2024-07-09 13:00:00+00:00,0.0
2024-07-09 14:00:00+00:00,0.0
2024-07-09 15:00:00+00:00,0.0
2024-07-09 16:00:00+00:00,0.0
2024-07-09 17:00:00+00:00,0.0
2024-07-09 18:00:00+00:00,0.0
2024-07-09 19:00:00+00:00,0.0
2024-07-10 13:00:00+00:00,0.0
2024-07-10 14:00:00+00:00,0.0
2024-07-10 15:00:00+00:00,0.0
2024-07-10 16:00:00+00:00,0.0
2024-07-10 17:00:00+00:00,0.0
2024-07-10 18:00:00+00:00,0.0
2024-07-10 19:00:00+00:00,0.0
2024-07-11 13:00:00+00:00,0.0
2024-07-11 14:00:00+00:00,0.0
2024-07-11 15:00:00+00:00,0.0
2024-07-11 16:00:00+00:00,0.0
2024-07-11 17:00:00+00:00,0.0
2024-07-11 18:00:00+00:00,0.0
2024-07-11 19:00:00+00:00,0.0
2024-07-12 13:00:00+00:00,0.0
2024-07-12 14:00:00+00:00,0.0
2024-07-12 15:00:00+00:00,0.0
2024-07-12 16:00:00+00:00,0.0
2024-07-12 17:00:00+00:00,0.0
2024-07-12 18:00:00+00:00,0.0
2024-07-12 19:00:00+00:00,0.0
2024-07-15 13:00:00+00:00,0.0
2024-07-15 14:00:00+00:00,0.0
2024-07-15 15:00:00+00:00,0.0
2024-07-15 16:00:00+00:00,0.0
2024-07-15 17:00:00+00:00,0.0
2024-07-15 18:00:00+00:00,0.0
2024-07-15 19:00:00+00:00,0.0
2024-07-16 13:00:00+00:00,0.0
2024-07-16 14:00:00+00:00,0.0
2024-07-16 15:00:00+00:00,0.0
2024-07-16 16:00:00+00:00,0.0
2024-07-16 17:00:00+00:00,0.0
2024-07-16 18:00:00+00:00,0.0
2024-07-16 19:00:00+00:00,0.0
2024-07-17 13:00:00+00:00,0.0
2024-07-17 14:00:00+00:00,0.0
2024-07-17 15:00:00+00:00,0.0
2024-07-17 16:00:00+00:00,0.0
2024-07-17 17:00:00+00:00,0.0
2024-07-17 18:00:00+00:00,0.0
2024-07-17 19:00:00+00:00,0.0
2024-07-18 13:00:00+00:00,0.0
2024-07-18 14:00:00+00:00,0.0
2024-07-18 15:00:00+00:00,0.0
2024-07-18 16:00:00+00:00,0.0
2024-07-18 17:00:00+00:00,0.0
2024-07-18 18:00:00+00:00,0.0
2024-07-18 19:00:00+00:00,0.0
2024-07-19 13:00:00+00:00,0.0
2024-07-19 14:00:00+00:00,0.0
2024-07-19 15:00:00+00:00,0.0
2024-07-19 16:00:00+00:00,0.0
2024-07-19 17:00:00+00:00,0.0
2024-07-19 18:00:00+00:00,0.0
2024-07-19 19:00:00+00:00,0.0
2024-07-22 13:00:00+00:00,0.0
2024-07-22 14:00:00+00:00,0.0
2024-07-22 15:00:00+00:00,0.0
2024-07-22 16:00:00+00:00,0.0
2024-07-22 17:00:00+00:00,0.0
2024-07-22 18:00:00+00:00,0.0
2024-07-22 19:00:00+00:00,0.0
2024-07-23 13:00:00+00:00,0.0
2024-07-23 14:00:00+00:00,0.0
2024-07-23 15:00:00+00:00,0.0
2024-07-23 16:00:00+00:00,0.0
2024-07-23 17:00:00+00:00,0.0
2024-07-23 18:00:00+00:00,0.0
2024-07-23 19:00:00+00:00,0.0
2024-07-24 13:00:00+00:00,0.0
2024-07-24 14:00:00+00:00,0.0
2024-07-24 15:00:00+00:00,0.0
2024-07-24 16:00:00+00:00,0.0
2024-07-24 17:00:00+00:00,0.0
2024-07-24 18:00:00+00:00,0.0
2024-07-24 19:00:00+00:00,0.0
2024-07-25 13:00:00+00:00,0.0
2024-07-25 14:00:00+00:00,0.0
2024-07-25 15:00:00+00:00,0.0
2024-07-25 16:00:00+00:00,0.0
2024-07-25 17:00:00+00:00,0.0
2024-07-25 18:00:00+00:00,0.0
2024-07-25 19:00:00+00:00,0.0
2024-07-26 13:00:00+00:00,0.0
2024-07-26 14:00:00+00:00,0.0
2024-07-26 15:00:00+00:00,0.0
2024-07-26 16:00:00+00:00,0.0
2024-07-26 17:00:00+00:00,0.0
2024-07-26 18:00:00+00:00,0.0
2024-07-26 19:00:00+00:00,0.0
2024-07-29 13:00:00+00:00,0.0
2024-07-29 14:00:00+00:00,0.0
2024-07-29 15:00:00+00:00,0.0
2024-07-29 16:00:00+00:00,0.0
2024-07-29 17:00:00+00:00,0.0
2024-07-29 18:00:00+00:00,0.0
2024-07-29 19:00:00+00:00,0.0
2024-07-30 13:00:00+00:00,0.0
2024-07-30 14:00:00+00:00,0.0
2024-07-30 15:00:00+00:00,0.0
2024-07-30 16:00:00+00:00,0.0
2024-07-30 17:00:00+00:00,0.0
2024-07-30 18:00:00+00:00,0.0
2024-07-30 19:00:00+00:00,0.0
2024-07-31 13:00:00+00:00,0.0
2024-07-31 14:00:00+00:00,0.0
2024-07-31 15:00:00+00:00,0.0
2024-07-31 16:00:00+00:00,0.0
2024-07-31 17:00:00+00:00,0.0
2024-07-31 18:00:00+00:00,0.0
2024-07-31 19:00:00+00:00,0.0
2024-08-01 13:00:00+00:00,0.0
2024-08-01 14:00:00+00:00,0.0
2024-08-01 15:00:00+00:00,0.0
2024-08-01 16:00:00+00:00,0.0
2024-08-01 17:00:00+00:00,0.0
2024-08-01 18:00:00+00:00,0.0
2024-08-01 19:00:00+00:00,0.0
2024-08-02 13:00:00+00:00,0.0
2024-08-02 14:00:00+00:00,0.0
2024-08-02 15:00:00+00:00,0.0
2024-08-02 16:00:00+00:00,0.0
2024-08-02 17:00:00+00:00,0.0
2024-08-02 18:00:00+00:00,0.0
2024-08-02 19:00:00+00:00,0.0
2024-08-05 13:00:00+00:00,0.0
2024-08-05 14:00:00+00:00,0.0
2024-08-05 15:00:00+00:00,0.0
2024-08-05 16:00:00+00:00,0.0
2024-08-05 17:00:00+00:00,0.0
2024-08-05 18:00:00+00:00,0.0
2024-08-05 19:00:00+00:00,0.0
2024-08-06 13:00:00+00:00,0.0
2024-08-06 14:00:00+00:00,0.0
2024-08-06 15:00:00+00:00,0.0
2024-08-06 16:00:00+00:00,0.0
2024-08-06 17:00:00+00:00,0.0
2024-08-06 18:00:00+00:00,0.0
2024-08-06 19:00:00+00:00,0.0
2024-08-07 13:00:00+00:00,0.0
2024-08-07 14:00:00+00:00,0.0
2024-08-07 15:00:00+00:00,0.0
2024-08-07 16:00:00+00:00,0.0
2024-08-07 17:00:00+00:00,0.0
2024-08-07 18:00:00+00:00,0.0
2024-08-07 19:00:00+00:00,0.0
2024-08-08 13:00:00+00:00,0.0
2024-08-08 14:00:00+00:00,0.0
2024-08-08 15:00:00+00:00,0.0
2024-08-08 16:00:00+00:00,0.0
2024-08-08 17:00:00+00:00,0.0
2024-08-08 18:00:00+00:00,0.0
2024-08-08 19:00:00+00:00,0.0
2024-08-09 13:00:00+00:00,0.0
2024-08-09 14:00:00+00:00,0.0
2024-08-09 15:00:00+00:00,0.0
2024-08-09 16:00:00+00:00,0.0
2024-08-09 17:00:00+00:00,0.0
2024-08-09 18:00:00+00:00,0.0
2024-08-09 19:00:00+00:00,0.0
2024-08-12 13:00:00+00:00,0.0
2024-08-12 14:00:00+00:00,0.0
2024-08-12 15:00:00+00:00,0.0
2024-08-12 16:00:00+00:00,0.0
2024-08-12 17:00:00+00:00,0.0
2024-08-12 18:00:00+00:00,0.0
2024-08-12 19:00:00+00:00,0.0
2024-08-13 13:00:00+00:00,0.0
2024-08-13 14:00:00+00:00,0.0
2024-08-13 15:00:00+00:00,0.0
2024-08-13 16:00:00+00:00,0.0
2024-08-13 17:00:00+00:00,0.0
2024-08-13 18:00:00+00:00,0.0
2024-08-13 19:00:00+00:00,0.0
2024-08-14 13:00:00+00:00,0.0
2024-08-14 14:00:00+00:00,0.0
2024-08-14 15:00:00+00:00,0.0
2024-08-14 16:00:00+00:00,0.0
2024-08-14 17:00:00+00:00,0.0
2024-08-14 18:00:00+00:00,0.0
2024-08-14 19:00:00+00:00,0.0
2024-08-15 13:00:00+00:00,0.0
2024-08-15 14:00:00+00:00,0.0
2024-08-15 15:00:00+00:00,0.0
2024-08-15 16:00:00+00:00,0.0
2024-08-15 17:00:00+00:00,0.0
2024-08-15 18:00:00+00:00,0.0
2024-08-15 19:00:00+00:00,0.0
2024-08-16 13:00:00+00:00,0.0
2024-08-16 14:00:00+00:00,0.0
2024-08-16 15:00:00+00:00,0.0
2024-08-16 16:00:00+00:00,0.0
2024-08-16 17:00:00+00:00,0.0
2024-08-16 18:00:00+00:00,0.0
2024-08-16 19:00:00+00:00,0.0
2024-08-19 13:00:00+00:00,0.0
2024-08-19 14:00:00+00:00,0.0
2024-08-19 15:00:00+00:00,0.0
2024-08-19 16:00:00+00:00,0.0
2024-08-19 17:00:00+00:00,0.0
2024-08-19 18:00:00+00:00,0.0
2024-08-19 19:00:00+00:00,0.0
2024-08-20 13:00:00+00:00,0.0
2024-08-20 14:00:00+00:00,0.0
2024-08-20 15:00:00+00:00,0.0
2024-08-20 16:00:00+00:00,0.0
2024-08-20 17:00:00+00:00,0.0
2024-08-20 18:00:00+00:00,0.0
2024-08-20 19:00:00+00:00,0.0
2024-08-21 13:00:00+00:00,0.0
2024-08-21 14:00:00+00:00,0.0
2024-08-21 15:00:00+00:00,0.0
2024-08-21 16:00:00+00:00,0.0
2024-08-21 17:00:00+00:00,0.0
2024-08-21 18:00:00+00:00,0.0
2024-08-21 19:00:00+00:00,0.0
2024-08-22 13:00:00+00:00,0.0
2024-08-22 14:00:00+00:00,0.0
2024-08-22 15:00:00+00:00,0.0
2024-08-22 16:00:00+00:00,0.0
2024-08-22 17:00:00+00:00,0.0
2024-08-22 18:00:00+00:00,0.0
2024-08-22 19:00:00+00:00,0.0
2024-08-23 13:00:00+00:00,0.0
2024-08-23 14:00:00+00:00,0.0
2024-08-23 15:00:00+00:00,0.0
2024-08-23 16:00:00+00:00,0.0
2024-08-23 17:00:00+00:00,0.0
2024-08-23 18:00:00+00:00,0.0
2024-08-23 19:00:00+00:00,0.0
2024-08-26 13:00:00+00:00,0.0
2024-08-26 14:00:00+00:00,0.0
2024-08-26 15:00:00+00:00,0.0
2024-08-26 16:00:00+00:00,0.0
2024-08-26 17:00:00+00:00,0.0
2024-08-26 18:00:00+00:00,0.0
2024-08-26 19:00:00+00:00,0.0
2024-08-27 13:00:00+00:00,0.0
2024-08-27 14:00:00+00:00,0.0
2024-08-27 15:00:00+00:00,0.0
2024-08-27 16:00:00+00:00,0.0
2024-08-27 17:00:00+00:00,0.0
2024-08-27 18:00:00+00:00,0.0
2024-08-27 19:00:00+00:00,0.0
2024-08-28 13:00:00+00:00,0.0
2024-08-28 14:00:00+00:00,0.0
2024-08-28 15:00:00+00:00,0.0
2024-08-28 16:00:00+00:00,0.0
2024-08-28 17:00:00+00:00,0.0
2024-08-28 18:00:00+00:00,0.0
2024-08-28 19:00:00+00:00,0.0
2024-08-29 13:00:00+00:00,0.0
2024-08-29 14:00:00+00:00,0.0
2024-08-29 15:00:00+00:00,0.0
2024-08-29 16:00:00+00:00,0.0
2024-08-29 17:00:00+00:00,0.0
2024-08-29 18:00:00+00:00,0.0
2024-08-29 19:00:00+00:00,0.0
2024-08-30 13:00:00+00:00,0.0
2024-08-30 14:00:00+00:00,0.0
2024-08-30 15:00:00+00:00,0.0
2024-08-30 16:00:00+00:00,0.0
2024-08-30 17:00:00+00:00,0.0
2024-08-30 18:00:00+00:00,0.0
2024-08-30 19:00:00+00:00,0.0
2024-09-03 13:00:00+00:00,0.0
2024-09-03 14:00:00+00:00,0.0
2024-09-03 15:00:00+00:00,0.0
2024-09-03 16:00:00+00:00,0.0
2024-09-03 17:00:00+00:00,0.0
2024-09-03 18:00:00+00:00,0.0
2024-09-03 19:00:00+00:00,0.0
2024-09-04 13:00:00+00:00,0.0
2024-09-04 14:00:00+00:00,0.0
2024-09-04 15:00:00+00:00,0.0
2024-09-04 16:00:00+00:00,0.0
2024-09-04 17:00:00+00:00,0.0
2024-09-04 18:00:00+00:00,0.0
2024-09-04 19:00:00+00:00,0.0
2024-09-05 13:00:00+00:00,0.0
2024-09-05 14:00:00+00:00,0.0
2024-09-05 15:00:00+00:00,0.0
2024-09-05 16:00:00+00:00,0.0
2024-09-05 17:00:00+00:00,0.0
2024-09-05 18:00:00+00:00,0.0
2024-09-05 19:00:00+00:00,0.0
2024-09-06 13:00:00+00:00,0.0
2024-09-06 14:00:00+00:00,0.0
2024-09-06 15:00:00+00:00,0.0
2024-09-06 16:00:00+00:00,0.0
2024-09-06 17:00:00+00:00,0.0
2024-09-06 18:00:00+00:00,0.0
2024-09-06 19:00:00+00:00,0.0
2024-09-09 13:00:00+00:00,0.0
2024-09-09 14:00:00+00:00,0.0
2024-09-09 15:00:00+00:00,0.0
2024-09-09 16:00:00+00:00,0.0
2024-09-09 17:00:00+00:00,0.0
2024-09-09 18:00:00+00:00,0.0
2024-09-09 19:00:00+00:00,0.0
2024-09-10 13:00:00+00:00,0.0
2024-09-10 14:00:00+00:00,0.0
2024-09-10 15:00:00+00:00,0.0
2024-09-10 16:00:00+00:00,0.0
2024-09-10 17:00:00+00:00,0.0
2024-09-10 18:00:00+00:00,0.0
2024-09-10 19:00:00+00:00,0.0
2024-09-11 13:00:00+00:00,0.0
2024-09-11 14:00:00+00:00,0.0
2024-09-11 15:00:00+00:00,0.0
2024-09-11 16:00:00+00:00,0.0
2024-09-11 17:00:00+00:00,0.0
2024-09-11 18:00:00+00:00,0.0
2024-09-11 19:00:00+00:00,0.0
2024-09-12 13:00:00+00:00,0.0
2024-09-12 14:00:00+00:00,0.0
2024-09-12 15:00:00+00:00,0.0
2024-09-12 16:00:00+00:00,0.0
2024-09-12 17:00:00+00:00,0.0
2024-09-12 18:00:00+00:00,0.0
2024-09-12 19:00:00+00:00,0.0
2024-09-13 13:00:00+00:00,0.0
2024-09-13 14:00:00+00:00,0.0
2024-09-13 15:00:00+00:00,0.0
2024-09-13 16:00:00+00:00,0.0
2024-09-13 17:00:00+00:00,0.0
2024-09-13 18:00:00+00:00,0.0
2024-09-13 19:00:00+00:00,0.0
2024-09-16 13:00:00+00:00,0.0
2024-09-16 14:00:00+00:00,0.0
2024-09-16 15:00:00+00:00,0.0
2024-09-16 16:00:00+00:00,0.0
2024-09-16 17:00:00+00:00,0.0
2024-09-16 18:00:00+00:00,0.0
2024-09-16 19:00:00+00:00,0.0
2024-09-17 13:00:00+00:00,0.0
2024-09-17 14:00:00+00:00,0.0
2024-09-17 15:00:00+00:00,0.0
2024-09-17 16:00:00+00:00,0.0
2024-09-17 17:00:00+00:00,0.0
2024-09-17 18:00:00+00:00,0.0
2024-09-17 19:00:00+00:00,0.0
2024-09-18 13:00:00+00:00,0.0
2024-09-18 14:00:00+00:00,0.0
2024-09-18 15:00:00+00:00,0.0
2024-09-18 16:00:00+00:00,0.0
2024-09-18 17:00:00+00:00,0.0
2024-09-18 18:00:00+00:00,0.0
2024-09-18 19:00:00+00:00,0.0
2024-09-19 13:00:00+00:00,0.0
2024-09-19 14:00:00+00:00,0.0
2024-09-19 15:00:00+00:00,0.0
2024-09-19 16:00:00+00:00,0.0
2024-09-19 17:00:00+00:00,0.0
2024-09-19 18:00:00+00:00,0.0
2024-09-19 19:00:00+00:00,0.0
2024-09-20 13:00:00+00:00,0.0
2024-09-20 14:00:00+00:00,0.0
2024-09-20 15:00:00+00:00,0.0
2024-09-20 16:00:00+00:00,0.0
2024-09-20 17:00:00+00:00,0.0
2024-09-20 18:00:00+00:00,0.0
2024-09-20 19:00:00+00:00,0.0
2024-09-23 13:00:00+00:00,0.0
2024-09-23 14:00:00+00:00,0.0
2024-09-23 15:00:00+00:00,0.0
2024-09-23 16:00:00+00:00,0.0
2024-09-23 17:00:00+00:00,0.0
2024-09-23 18:00:00+00:00,0.0
2024-09-23 19:00:00+00:00,0.0
2024-09-24 13:00:00+00:00,0.0
2024-09-24 14:00:00+00:00,0.0
2024-09-24 15:00:00+00:00,0.0
2024-09-24 16:00:00+00:00,0.0
2024-09-24 17:00:00+00:00,0.0
2024-09-24 18:00:00+00:00,0.0
2024-09-24 19:00:00+00:00,0.0
2024-09-25 13:00:00+00:00,0.0
2024-09-25 14:00:00+00:00,0.0
2024-09-25 15:00:00+00:00,0.0
2024-09-25 16:00:00+00:00,0.0
2024-09-25 17:00:00+00:00,0.0
2024-09-25 18:00:00+00:00,0.0
2024-09-25 19:00:00+00:00,0.0
2024-09-26 13:00:00+00:00,0.0
2024-09-26 14:00:00+00:00,0.0
2024-09-26 15:00:00+00:00,0.0
2024-09-26 16:00:00+00:00,0.0
2024-09-26 17:00:00+00:00,0.0
2024-09-26 18:00:00+00:00,0.0
2024-09-26 19:00:00+00:00,0.0
2024-09-27 13:00:00+00:00,0.0
2024-09-27 14:00:00+00:00,0.0
2024-09-27 15:00:00+00:00,0.0
2024-09-27 16:00:00+00:00,0.0
2024-09-27 17:00:00+00:00,0.0
2024-09-27 18:00:00+00:00,0.0
2024-09-27 19:00:00+00:00,0.0
2024-09-30 13:00:00+00:00,0.0
2024-09-30 14:00:00+00:00,-55.17458019833615
2024-09-30 15:00:00+00:00,-19.876782461236566
2024-09-30 16:00:00+00:00,-18.922695675732477
2024-09-30 17:00:00+00:00,15.435845193560972
2024-09-30 18:00:00+00:00,-2.0466962004383547
2024-09-30 19:00:00+00:00,-29.345981872822662
2024-10-01 13:00:00+00:00,-91.35744078097565
2024-10-01 14:00:00+00:00,-114.72721386101594
2024-10-01 15:00:00+00:00,-121.54432486251208
2024-10-01 16:00:00+00:00,-121.88930583181325
2024-10-01 17:00:00+00:00,-140.361902655302
2024-10-01 18:00:00+00:00,-166.51007115878394
2024-10-01 19:00:00+00:00,-157.44629415420798
2024-10-02 13:00:00+00:00,-202.7837555096964
2024-10-02 14:00:00+00:00,-184.8696330901347
2024-10-02 15:00:00+00:00,-200.86126646473048
2024-10-02 16:00:00+00:00,-184.92150428391741
2024-10-02 17:00:00+00:00,-164.31447924830292
2024-10-02 18:00:00+00:00,-208.07432401563202
2024-10-02 19:00:00+00:00,-225.50517367435145
2024-10-03 13:00:00+00:00,-253.82527949665726
2024-10-03 14:00:00+00:00,-250.17784478438853
2024-10-03 15:00:00+00:00,-276.56552418621243
2024-10-03 16:00:00+00:00,-310.62812150832974
2024-10-03 17:00:00+00:00,-297.2199864416255
2024-10-03 18:00:00+00:00,-283.1017010167295
2024-10-03 19:00:00+00:00,-286.98620158056724
2024-10-04 13:00:00+00:00,-322.3696303059643
2024-10-04 14:00:00+00:00,-344.3267381868793
2024-10-04 15:00:00+00:00,-359.63219287357236
2024-10-04 16:00:00+00:00,-363.3538656562662
2024-10-04 17:00:00+00:00,-340.63181672243746
2024-10-04 18:00:00+00:00,-333.9795306536171
2024-10-04 19:00:00+00:00,-362.55277099708
2024-10-07 13:00:00+00:00,-438.1054616199986
2024-10-07 14:00:00+00:00,-458.2931842213214
2024-10-07 15:00:00+00:00,-474.3369460115663
2024-10-07 16:00:00+00:00,-465.1267569093684
2024-10-07 17:00:00+00:00,-444.3832330005199
2024-10-07 18:00:00+00:00,-466.6192644446865
2024-10-07 19:00:00+00:00,-417.7769098446008
2024-10-08 13:00:00+00:00,-290.2549219349755
2024-10-08 14:00:00+00:00,-281.50755179601106
2024-10-08 15:00:00+00:00,-268.5692473769241
2024-10-08 16:00:00+00:00,-296.2844430493789
2024-10-08 17:00:00+00:00,-284.94247957401933
2024-10-08 18:00:00+00:00,-293.1981452103472
2024-10-08 19:00:00+00:00,-290.0583311511967
2024-10-09 13:00:00+00:00,-297.37896783901033
2024-10-09 14:00:00+00:00,-318.7806931489039
2024-10-09 15:00:00+00:00,-315.710824743481
2024-10-09 16:00:00+00:00,-319.96060964882884
2024-10-09 17:00:00+00:00,-329.34412787531534
2024-10-09 18:00:00+00:00,-352.308351884677
2024-10-09 19:00:00+00:00,-349.79410532827825
2024-10-10 13:00:00+00:00,-369.4217907588482
2024-10-10 14:00:00+00:00,-339.8017385074569
2024-10-10 15:00:00+00:00,-358.11647207608394
2024-10-10 16:00:00+00:00,-353.6662974005819
2024-10-10 17:00:00+00:00,-371.1073093382476
2024-10-10 18:00:00+00:00,-380.8641794174883
2024-10-10 19:00:00+00:00,-380.05779422881955
2024-10-11 13:00:00+00:00,-401.3888342601113
2024-10-11 14:00:00+00:00,-395.0598990577402
2024-10-11 15:00:00+00:00,-403.55814556984905
2024-10-11 16:00:00+00:00,-427.21580102898554
2024-10-11 17:00:00+00:00,-418.80352517678597
2024-10-11 18:00:00+00:00,-405.2922961143284
2024-10-11 19:00:00+00:00,-383.213164360842
2024-10-14 13:00:00+00:00,-370.24338887900666
2024-10-14 14:00:00+00:00,-361.25767393970403
2024-10-14 15:00:00+00:00,-344.05199234611473
2024-10-14 16:00:00+00:00,-359.626617390978
2024-10-14 17:00:00+00:00,-363.04377344133053
2024-10-14 18:00:00+00:00,-363.61768146174325
2024-10-14 19:00:00+00:00,-378.9499050893267
2024-10-15 13:00:00+00:00,-284.0638069604479
2024-10-15 14:00:00+00:00,-315.57085283005625
2024-10-15 15:00:00+00:00,-310.8089230941606
2024-10-15 16:00:00+00:00,-307.0116916086572
2024-10-15 17:00:00+00:00,-315.1693284665836
2024-10-15 18:00:00+00:00,-302.6845296210564
2024-10-15 19:00:00+00:00,-276.95693474203097
2024-10-16 13:00:00+00:00,-284.29134620709135
2024-10-16 14:00:00+00:00,-276.07042842870175
2024-10-16 15:00:00+00:00,-289.11365132838097
2024-10-16 16:00:00+00:00,-296.6580360239129
2024-10-16 17:00:00+00:00,-322.3207083105398
2024-10-16 18:00:00+00:00,-314.2286297845285
2024-10-16 19:00:00+00:00,-298.82707664208783
2024-10-17 13:00:00+00:00,-283.4079312304918
2024-10-17 14:00:00+00:00,-257.53895322319266
2024-10-17 15:00:00+00:00,-247.7531844780574
2024-10-17 16:00:00+00:00,-252.39518070041186
2024-10-17 17:00:00+00:00,-254.91012115904505
2024-10-17 18:00:00+00:00,-250.36536974040024
2024-10-17 19:00:00+00:00,-252.53324752302902
2024-10-18 13:00:00+00:00,-210.71724374221327
2024-10-18 14:00:00+00:00,-203.06837724645624
2024-10-18 15:00:00+00:00,-220.1425294549567
2024-10-18 16:00:00+00:00,-207.09127211437428
2024-10-18 17:00:00+00:00,-213.4219105058023
2024-10-18 18:00:00+00:00,-235.44029469940918
2024-10-18 19:00:00+00:00,-233.48937026510612
2024-10-21 13:00:00+00:00,-245.34414022030467
2024-10-21 14:00:00+00:00,-228.35523251653984
2024-10-21 15:00:00+00:00,-199.44201363127317
2024-10-21 16:00:00+00:00,-201.29710766252686
2024-10-21 17:00:00+00:00,-187.47404597279424
2024-10-21 18:00:00+00:00,-178.4716443780164
2024-10-21 19:00:00+00:00,-173.09539468697835
2024-10-22 13:00:00+00:00,-152.47208810972725
2024-10-22 14:00:00+00:00,-158.37371787244712
2024-10-22 15:00:00+00:00,-158.24662327873997
2024-10-22 16:00:00+00:00,-148.62076814085694
2024-10-22 17:00:00+00:00,-140.82445727013504
2024-10-22 18:00:00+00:00,-128.62328628822402
2024-10-22 19:00:00+00:00,-118.8067669787634
2024-10-23 13:00:00+00:00,-110.1352558482488
2024-10-23 14:00:00+00:00,-97.38838726633665
2024-10-23 15:00:00+00:00,-120.42142634682185
2024-10-23 16:00:00+00:00,-128.3656960362439
2024-10-23 17:00:00+00:00,-129.55930392732623
2024-10-23 18:00:00+00:00,-133.06426824891784
2024-10-23 19:00:00+00:00,-146.57759283098395
2024-10-24 13:00:00+00:00,-110.81295176664969
2024-10-24 14:00:00+00:00,-113.62282648563821
2024-10-24 15:00:00+00:00,-109.95513206456586
2024-10-24 16:00:00+00:00,-119.09254105496488
2024-10-24 17:00:00+00:00,-120.4047396913466
2024-10-24 18:00:00+00:00,-128.29618706288468
2024-10-24 19:00:00+00:00,-126.40608795182595
2024-10-25 13:00:00+00:00,-124.02852041357507
2024-10-25 14:00:00+00:00,-138.35481831481584
2024-10-25 15:00:00+00:00,-79.2981278606049
2024-10-25 16:00:00+00:00,-49.80826317088228
2024-10-25 17:00:00+00:00,-36.968784160755575
2024-10-25 18:00:00+00:00,-46.127539092743056
2024-10-25 19:00:00+00:00,-36.7170696970085
2024-10-28 13:00:00+00:00,11.566675733669669
2024-10-28 14:00:00+00:00,7.472262382454943
2024-10-28 15:00:00+00:00,-14.91801003324069
2024-10-28 16:00:00+00:00,-34.34326114473947
2024-10-28 17:00:00+00:00,-22.566908781938572
2024-10-28 18:00:00+00:00,-45.158005907470795
2024-10-28 19:00:00+00:00,-33.78905935312586
2024-10-29 13:00:00+00:00,-20.74609367531387
2024-10-29 14:00:00+00:00,15.866732316887674
2024-10-29 15:00:00+00:00,7.563868585794378
2024-10-29 16:00:00+00:00,5.232219850335091
2024-10-29 17:00:00+00:00,0.7594195325670787
2024-10-29 18:00:00+00:00,20.26688694513016
2024-10-29 19:00:00+00:00,23.081646605568952
2024-10-30 13:00:00+00:00,18.390356425635353
2024-10-30 14:00:00+00:00,8.039842260512318
2024-10-30 15:00:00+00:00,0.9564150869791028
2024-10-30 16:00:00+00:00,12.304966349639495
2024-10-30 17:00:00+00:00,10.080152155874918
2024-10-30 18:00:00+00:00,18.73458464357062
2024-10-30 19:00:00+00:00,27.816850484346855
2024-10-31 13:00:00+00:00,-27.991776625152188
2024-10-31 14:00:00+00:00,-23.2974270182218
2024-10-31 15:00:00+00:00,-8.463930768768037
2024-10-31 16:00:00+00:00,-1.9994896063164038
2024-10-31 17:00:00+00:00,-25.275109562585065
2024-10-31 18:00:00+00:00,-47.7168600649483
2024-10-31 19:00:00+00:00,-57.56999722760761
2024-11-01 13:00:00+00:00,-74.37600553875177
2024-11-01 14:00:00+00:00,-49.817342833864004
2024-11-01 15:00:00+00:00,-46.729175130561195
2024-11-01 16:00:00+00:00,-13.954672991129499
2024-11-01 17:00:00+00:00,-3.717210717186525
2024-11-01 18:00:00+00:00,-35.249190212017865
2024-11-01 19:00:00+00:00,-25.658096189554975
2024-11-04 14:00:00+00:00,-119.28609796303527
2024-11-04 15:00:00+00:00,-115.28513975528084
2024-11-04 16:00:00+00:00,-111.86135053819247
2024-11-04 17:00:00+00:00,-99.76876266646808
2024-11-04 18:00:00+00:00,-73.25662488726267
2024-11-04 19:00:00+00:00,-74.78968378897662
2024-11-04 20:00:00+00:00,-86.55108005989655
2024-11-05 14:00:00+00:00,-99.967429843406
2024-11-05 15:00:00+00:00,-86.2739952905626
2024-11-05 16:00:00+00:00,-102.7855515321414
2024-11-05 17:00:00+00:00,-67.77082783544539
2024-11-05 18:00:00+00:00,-54.33486720913968
2024-11-05 19:00:00+00:00,-39.644126074184385
2024-11-05 20:00:00+00:00,-48.18556012996146
2024-11-06 14:00:00+00:00,-269.06308993599635
2024-11-06 15:00:00+00:00,-254.35453156296253
2024-11-06 16:00:00+00:00,-257.4593405423072
2024-11-06 17:00:00+00:00,-300.8591765241012
2024-11-06 18:00:00+00:00,-332.3691608681287
2024-11-06 19:00:00+00:00,-323.05536332644505
2024-11-06 20:00:00+00:00,-282.037272795626
2024-11-07 14:00:00+00:00,-216.04252785314458
2024-11-07 15:00:00+00:00,-219.42445385476768
2024-11-07 16:00:00+00:00,-236.52562139519233
2024-11-07 17:00:00+00:00,-233.2275254976433
2024-11-07 18:00:00+00:00,-230.85443744379978
2024-11-07 19:00:00+00:00,-248.75329326529715
2024-11-07 20:00:00+00:00,-247.99061006403028
2024-11-08 14:00:00+00:00,-599.0438826825191
2024-11-08 15:00:00+00:00,-666.9826796365456
2024-11-08 16:00:00+00:00,-688.3693633173001
2024-11-08 17:00:00+00:00,-742.501348556702
2024-11-08 18:00:00+00:00,-766.8109961472296
2024-11-08 19:00:00+00:00,-760.8910036103631
2024-11-08 20:00:00+00:00,-731.6941246085407
2024-11-11 14:00:00+00:00,-730.0801913956584
2024-11-11 15:00:00+00:00,-644.5541140255418
2024-11-11 16:00:00+00:00,-646.1666594339545
2024-11-11 17:00:00+00:00,-635.4777420698312
2024-11-11 18:00:00+00:00,-664.1600784634034
2024-11-11 19:00:00+00:00,-646.9131381705381
2024-11-11 20:00:00+00:00,-653.608386814102
2024-11-12 14:00:00+00:00,-650.0261941196293
2024-11-12 15:00:00+00:00,-672.4273077183389
2024-11-12 16:00:00+00:00,-676.4349806812149
2024-11-12 17:00:00+00:00,-667.5108494732756
2024-11-12 18:00:00+00:00,-667.85744321597
2024-11-12 19:00:00+00:00,-667.9010996929487
2024-11-12 20:00:00+00:00,-683.4425763957863
2024-11-13 14:00:00+00:00,-731.0056149802936
2024-11-13 15:00:00+00:00,-743.8039180756195
2024-11-13 16:00:00+00:00,-771.5193387169995
2024-11-13 17:00:00+00:00,-731.2075750525075
2024-11-13 18:00:00+00:00,-702.9866247814708
2024-11-13 19:00:00+00:00,-697.4363520639097
2024-11-13 20:00:00+00:00,-706.6118255611098
2024-11-14 14:00:00+00:00,-699.3781429102487
2024-11-14 15:00:00+00:00,-687.9209127929055
2024-11-14 16:00:00+00:00,-696.9876477025043
2024-11-14 17:00:00+00:00,-723.8036283611048
2024-11-14 18:00:00+00:00,-758.3709078619203
2024-11-14 19:00:00+00:00,-788.1680106570949
2024-11-14 20:00:00+00:00,-782.9810050802228
2024-11-15 14:00:00+00:00,-837.477465806281
2024-11-15 15:00:00+00:00,-780.8319279127154
2024-11-15 16:00:00+00:00,-789.3310932959843
2024-11-15 17:00:00+00:00,-789.6090836789983
2024-11-15 18:00:00+00:00,-778.2486090633258
2024-11-15 19:00:00+00:00,-791.6905863742907
2024-11-15 20:00:00+00:00,-789.3665028032169
2024-11-18 14:00:00+00:00,-820.9823389983102
2024-11-18 15:00:00+00:00,-814.4378513785748
2024-11-18 16:00:00+00:00,-843.8114921357835
2024-11-18 17:00:00+00:00,-848.5298726564379
2024-11-18 18:00:00+00:00,-845.9577429488173
2024-11-18 19:00:00+00:00,-862.2437043071451
2024-11-18 20:00:00+00:00,-846.0616184724166
2024-11-19 14:00:00+00:00,-841.6920206628986
2024-11-19 15:00:00+00:00,-836.4764821544924
2024-11-19 16:00:00+00:00,-851.4918988273055
2024-11-19 17:00:00+00:00,-825.683957854694
2024-11-19 18:00:00+00:00,-829.5517395101148
2024-11-19 19:00:00+00:00,-800.5173199162082
2024-11-19 20:00:00+00:00,-790.6646649443401
2024-11-20 14:00:00+00:00,-820.2536774998051
2024-11-20 15:00:00+00:00,-800.5598135576416
2024-11-20 16:00:00+00:00,-790.8121093193066
2024-11-20 17:00:00+00:00,-798.1404140272498
2024-11-20 18:00:00+00:00,-804.4877266340724
2024-11-20 19:00:00+00:00,-831.7877062086919
2024-11-20 20:00:00+00:00,-827.7463704600569
2024-11-21 14:00:00+00:00,-837.155083740911
2024-11-21 15:00:00+00:00,-845.7474146636296
2024-11-21 16:00:00+00:00,-814.3606496018845
2024-11-21 17:00:00+00:00,-782.4220039234701
2024-11-21 18:00:00+00:00,-765.3502750592469
2024-11-21 19:00:00+00:00,-765.2512182107802
2024-11-21 20:00:00+00:00,-747.6559802997526
2024-11-22 14:00:00+00:00,-753.0754175344581
2024-11-22 15:00:00+00:00,-773.1424083604506
2024-11-22 16:00:00+00:00,-786.4970272070365
2024-11-22 17:00:00+00:00,-767.1755962464675
2024-11-22 18:00:00+00:00,-771.168558691098
2024-11-22 19:00:00+00:00,-776.9763477716114
2024-11-22 20:00:00+00:00,-775.640225483241
2024-11-25 14:00:00+00:00,-756.9450559276587
2024-11-25 15:00:00+00:00,-721.6576370638138
2024-11-25 16:00:00+00:00,-665.1515358534714
2024-11-25 17:00:00+00:00,-669.3234176101536
2024-11-25 18:00:00+00:00,-645.3877262575802
2024-11-25 19:00:00+00:00,-628.5208603702497
2024-11-25 20:00:00+00:00,-612.7809737123418
2024-11-26 14:00:00+00:00,-647.8007810664282
2024-11-26 15:00:00+00:00,-619.6861693333942
2024-11-26 16:00:00+00:00,-643.1883774122035
2024-11-26 17:00:00+00:00,-637.0214780638715
2024-11-26 18:00:00+00:00,-686.8087668660347
2024-11-26 19:00:00+00:00,-684.701489437726
2024-11-26 20:00:00+00:00,-680.2523112002646
2024-11-27 14:00:00+00:00,-705.8770633054465
2024-11-27 15:00:00+00:00,-714.7657850061537
2024-11-27 16:00:00+00:00,-723.1317816347478
2024-11-27 17:00:00+00:00,-692.8817172099024
2024-11-27 18:00:00+00:00,-680.2682261901406
2024-11-27 19:00:00+00:00,-674.821561912066
2024-11-27 20:00:00+00:00,-679.3322138645842
2024-11-29 14:00:00+00:00,-677.6877560859194
2024-11-29 15:00:00+00:00,-668.5947561116488
2024-11-29 16:00:00+00:00,-682.0519282572697
2024-12-02 14:00:00+00:00,-576.0627147958155
2024-12-02 15:00:00+00:00,-553.3946333927769
2024-12-02 16:00:00+00:00,-536.2133128179561
2024-12-02 17:00:00+00:00,-564.3728152837148
2024-12-02 18:00:00+00:00,-580.7807630858082
2024-12-02 19:00:00+00:00,-587.8226054720673
2024-12-02 20:00:00+00:00,-572.1780347734759
2024-12-03 14:00:00+00:00,-572.9149432417271
2024-12-03 15:00:00+00:00,-606.7281909384483
2024-12-03 16:00:00+00:00,-610.838553469651
2024-12-03 17:00:00+00:00,-625.3646168774904
2024-12-03 18:00:00+00:00,-645.6748824815
2024-12-03 19:00:00+00:00,-616.3709444432502
2024-12-03 20:00:00+00:00,-603.7095775879377
2024-12-04 14:00:00+00:00,-492.6398958035542
2024-12-04 15:00:00+00:00,-528.8725430306669
2024-12-04 16:00:00+00:00,-517.3728710097739
2024-12-04 17:00:00+00:00,-510.3765685654521
2024-12-04 18:00:00+00:00,-524.7108104919332
2024-12-04 19:00:00+00:00,-555.0029347818116
2024-12-04 20:00:00+00:00,-561.6371141377455
2024-12-05 14:00:00+00:00,-624.2074394371712
2024-12-05 15:00:00+00:00,-598.6028610464119
2024-12-05 16:00:00+00:00,-600.3415142798234
2024-12-05 17:00:00+00:00,-625.1712520356982
2024-12-05 18:00:00+00:00,-589.129402910277
2024-12-05 19:00:00+00:00,-622.5517064850902
2024-12-05 20:00:00+00:00,-615.0244773783431
2024-12-06 14:00:00+00:00,-487.026488244514
2024-12-06 15:00:00+00:00,-518.6793789731752
2024-12-06 16:00:00+00:00,-529.9189423550174
2024-12-06 17:00:00+00:00,-528.1152505842356
2024-12-06 18:00:00+00:00,-538.396256744585
2024-12-06 19:00:00+00:00,-550.8364570374479
2024-12-06 20:00:00+00:00,-543.4127586068217
2024-12-09 14:00:00+00:00,-526.4813539206878
2024-12-09 15:00:00+00:00,-526.3340443112005
2024-12-09 16:00:00+00:00,-534.9445953529915
2024-12-09 17:00:00+00:00,-545.4204921565216
2024-12-09 18:00:00+00:00,-519.6719887026851
2024-12-09 19:00:00+00:00,-535.5159527333897
2024-12-09 20:00:00+00:00,-475.80010975403286
2024-12-10 14:00:00+00:00,-565.2822783680508
2024-12-10 15:00:00+00:00,-523.4979706189074
2024-12-10 16:00:00+00:00,-495.5564307882961
2024-12-10 17:00:00+00:00,-493.42352583253114
2024-12-10 18:00:00+00:00,-487.1044634997931
2024-12-10 19:00:00+00:00,-456.3847506386162
2024-12-10 20:00:00+00:00,-445.20695044664126
2024-12-11 14:00:00+00:00,-438.0159864061376
2024-12-11 15:00:00+00:00,-408.6960556146474
2024-12-11 16:00:00+00:00,-415.9455060498232
2024-12-11 17:00:00+00:00,-422.46698888873044
2024-12-11 18:00:00+00:00,-470.5804702788678
2024-12-11 19:00:00+00:00,-484.8290122370041
2024-12-11 20:00:00+00:00,-476.5294651547728
2024-12-12 14:00:00+00:00,-435.2253489826373
2024-12-12 15:00:00+00:00,-453.2374157648961
2024-12-12 16:00:00+00:00,-458.47522619685236
2024-12-12 17:00:00+00:00,-467.46741432977745
2024-12-12 18:00:00+00:00,-449.68063806903666
2024-12-12 19:00:00+00:00,-443.31546353111247
2024-12-12 20:00:00+00:00,-434.6434834672874
2024-12-13 14:00:00+00:00,-439.47611726502885
2024-12-13 15:00:00+00:00,-449.8754967871939
2024-12-13 16:00:00+00:00,-463.60999360374814
2024-12-13 17:00:00+00:00,-476.5837075300681
2024-12-13 18:00:00+00:00,-482.97568521427917
2024-12-13 19:00:00+00:00,-479.2973715068918
2024-12-13 20:00:00+00:00,-479.7063660004333
2024-12-16 14:00:00+00:00,-469.0064317143764
2024-12-16 15:00:00+00:00,-452.9672394809941
2024-12-16 16:00:00+00:00,-446.1901665237149
2024-12-16 17:00:00+00:00,-410.14091987547465
2024-12-16 18:00:00+00:00,-414.46977192563855
2024-12-16 19:00:00+00:00,-401.4693764920172
2024-12-16 20:00:00+00:00,-416.8535490767486
2024-12-17 14:00:00+00:00,-297.6647012156832
2024-12-17 15:00:00+00:00,-314.28051428856105
2024-12-17 16:00:00+00:00,-302.4065749389875
2024-12-17 17:00:00+00:00,-315.99728427533034
2024-12-17 18:00:00+00:00,-311.58330417686386
2024-12-17 19:00:00+00:00,-330.96637662281523
2024-12-17 20:00:00+00:00,-336.21972248165054
2024-12-18 14:00:00+00:00,-255.38200899872058
2024-12-18 15:00:00+00:00,-252.52241771309588
2024-12-18 16:00:00+00:00,-256.11264566586976
2024-12-18 17:00:00+00:00,-250.4672687004362
2024-12-18 18:00:00+00:00,-235.15263734200647
2024-12-18 19:00:00+00:00,-220.75821827187534
2024-12-18 20:00:00+00:00,-164.30339006030977
2024-12-19 14:00:00+00:00,-172.94694039154953
2024-12-19 15:00:00+00:00,-141.18371867062007
2024-12-19 16:00:00+00:00,-127.03188047627239
2024-12-19 17:00:00+00:00,-131.73211152818567
2024-12-19 18:00:00+00:00,-134.48238205318538
2024-12-19 19:00:00+00:00,-141.22033652382078
2024-12-19 20:00:00+00:00,-125.9571074258641
2024-12-20 14:00:00+00:00,-57.53595942475992
2024-12-20 15:00:00+00:00,-61.116295381452915
2024-12-20 16:00:00+00:00,-77.59378440984639
2024-12-20 17:00:00+00:00,-66.78820548802074
2024-12-20 18:00:00+00:00,-67.43089632661697
2024-12-20 19:00:00+00:00,-53.5715956445376
2024-12-20 20:00:00+00:00,-64.43056914749494
2024-12-23 14:00:00+00:00,-39.0462517055082
2024-12-23 15:00:00+00:00,-46.77261692250043
2024-12-23 16:00:00+00:00,-34.075326116224446
2024-12-23 17:00:00+00:00,-55.7562179021581
2024-12-23 18:00:00+00:00,-55.24746666643584
2024-12-23 19:00:00+00:00,-56.71103084283459
2024-12-23 20:00:00+00:00,-70.1346442190464
2024-12-24 14:00:00+00:00,-63.0392533597281
2024-12-24 15:00:00+00:00,-65.12181003486398
2024-12-24 16:00:00+00:00,-96.36427987788916
2024-12-26 14:00:00+00:00,-119.68829301740945
2024-12-26 15:00:00+00:00,-89.38587230402212
2024-12-26 16:00:00+00:00,-103.32227937678832
2024-12-26 17:00:00+00:00,-83.31524003910876
2024-12-26 18:00:00+00:00,-96.38452714661173
2024-12-26 19:00:00+00:00,-92.898344313692
2024-12-26 20:00:00+00:00,-83.14522790688805
2024-12-27 14:00:00+00:00,-83.57378141519015
2024-12-27 15:00:00+00:00,-87.25932532728103
2024-12-27 16:00:00+00:00,-72.08414859593894
2024-12-27 17:00:00+00:00,-84.04125221008383
2024-12-27 18:00:00+00:00,-78.32798396214018
2024-12-27 19:00:00+00:00,-68.93275813489416
2024-12-27 20:00:00+00:00,-62.56985939248089
2024-12-30 14:00:00+00:00,-35.72095536077913
2024-12-30 15:00:00+00:00,-51.42586919182321
2024-12-30 16:00:00+00:00,-66.41906540170504
2024-12-30 17:00:00+00:00,-44.22738433675033
2024-12-30 18:00:00+00:00,-56.915541555064365
2024-12-30 19:00:00+00:00,-46.1150393458545
2024-12-30 20:00:00+00:00,-75.3531208586682
2024-12-31 14:00:00+00:00,-115.73739726019417
2024-12-31 15:00:00+00:00,-108.98132295017842
2024-12-31 16:00:00+00:00,-93.28439886701442
2024-12-31 17:00:00+00:00,-77.28451852267298
2024-12-31 18:00:00+00:00,-136.55841954707643
2024-12-31 19:00:00+00:00,-125.891376381178
2024-12-31 20:00:00+00:00,-135.50054486358582
2025-01-02 14:00:00+00:00,-237.88127045386213
2025-01-02 15:00:00+00:00,-217.18096634162185
2025-01-02 16:00:00+00:00,-211.3275446469006
2025-01-02 17:00:00+00:00,-215.64825858301813
2025-01-02 18:00:00+00:00,-216.94871414229058
2025-01-02 19:00:00+00:00,-236.27882875297402
2025-01-02 20:00:00+00:00,-231.5178178882388
2025-01-03 14:00:00+00:00,-312.8279203443256
2025-01-03 15:00:00+00:00,-293.61883894966667
2025-01-03 16:00:00+00:00,-287.70027925349774
2025-01-03 17:00:00+00:00,-311.6648377054363
2025-01-03 18:00:00+00:00,-312.28898515077714
2025-01-03 19:00:00+00:00,-309.3750653119328
2025-01-03 20:00:00+00:00,-297.26833692860146
2025-01-06 14:00:00+00:00,-322.5869204832986
2025-01-06 15:00:00+00:00,-329.8924062120781
2025-01-06 16:00:00+00:00,-299.9894653787417
2025-01-06 17:00:00+00:00,-294.609820461647
2025-01-06 18:00:00+00:00,-291.0058643990857
2025-01-06 19:00:00+00:00,-283.1599569694861
2025-01-06 20:00:00+00:00,-274.51168871521617
2025-01-07 14:00:00+00:00,-308.63589988575484
2025-01-07 15:00:00+00:00,-303.31831184061446
2025-01-07 16:00:00+00:00,-331.4850519892967
2025-01-07 17:00:00+00:00,-333.89573561663207
2025-01-07 18:00:00+00:00,-315.3548050954093
2025-01-07 19:00:00+00:00,-296.77967341292197
2025-01-07 20:00:00+00:00,-292.58198467028166
2025-01-08 14:00:00+00:00,-367.4079482958393
2025-01-08 15:00:00+00:00,-360.3486930989289
2025-01-08 16:00:00+00:00,-363.74890527193975
2025-01-08 17:00:00+00:00,-367.9637496033654
2025-01-08 18:00:00+00:00,-363.70145625272585
2025-01-08 19:00:00+00:00,-359.65456774691916
2025-01-08 20:00:00+00:00,-364.2153119188052
2025-01-10 14:00:00+00:00,-521.985939155897
2025-01-10 15:00:00+00:00,-454.21408109419275
2025-01-10 16:00:00+00:00,-483.1702625542029
2025-01-10 17:00:00+00:00,-497.1069718850638
2025-01-10 18:00:00+00:00,-530.468675105557
2025-01-10 19:00:00+00:00,-505.4685071260839
2025-01-10 20:00:00+00:00,-528.8657644713601
2025-01-13 14:00:00+00:00,-606.096538778625
2025-01-13 15:00:00+00:00,-639.361023791598
2025-01-13 16:00:00+00:00,-654.164646558835
2025-01-13 17:00:00+00:00,-690.0685893879439
2025-01-13 18:00:00+00:00,-679.757080836722
2025-01-13 19:00:00+00:00,-625.2965440616289
2025-01-13 20:00:00+00:00,-622.6082744787067
2025-01-14 14:00:00+00:00,-644.5588269782309
2025-01-14 15:00:00+00:00,-664.8608456124944
2025-01-14 16:00:00+00:00,-687.9293264531543
2025-01-14 17:00:00+00:00,-717.2353736116985
2025-01-14 18:00:00+00:00,-719.6430747580026
2025-01-14 19:00:00+00:00,-716.3344564384038
2025-01-14 20:00:00+00:00,-733.0070389039957
2025-01-15 14:00:00+00:00,-731.3092174243197
2025-01-15 15:00:00+00:00,-716.4255370086886
2025-01-15 16:00:00+00:00,-725.9482981508187
2025-01-15 17:00:00+00:00,-729.884817113999
2025-01-15 18:00:00+00:00,-739.7696825612727
2025-01-15 19:00:00+00:00,-747.7651750526645
2025-01-15 20:00:00+00:00,-768.560827377163
2025-01-16 14:00:00+00:00,-776.4017458489641
2025-01-16 15:00:00+00:00,-812.0318877492357
2025-01-16 16:00:00+00:00,-807.9600467734853
2025-01-16 17:00:00+00:00,-809.9374720959813
2025-01-16 18:00:00+00:00,-813.1197797965652
2025-01-16 19:00:00+00:00,-818.8144900837679
2025-01-16 20:00:00+00:00,-849.6473612840337
2025-01-17 14:00:00+00:00,-804.6741306334152
2025-01-17 15:00:00+00:00,-790.3480899540408
2025-01-17 16:00:00+00:00,-785.495882574052
2025-01-17 17:00:00+00:00,-779.3001418678779
2025-01-17 18:00:00+00:00,-770.6542260118778
2025-01-17 19:00:00+00:00,-774.4522414720725
2025-01-17 20:00:00+00:00,-785.2836728902782
2025-01-21 14:00:00+00:00,-799.2941513667323
2025-01-21 15:00:00+00:00,-828.7176128343443
2025-01-21 16:00:00+00:00,-801.3650359107664
2025-01-21 17:00:00+00:00,-818.3370775005549
2025-01-21 18:00:00+00:00,-787.4041191098604
2025-01-21 19:00:00+00:00,-805.2421960871205
2025-01-21 20:00:00+00:00,-841.5536966184158
2025-01-22 14:00:00+00:00,-816.5775566504855
2025-01-22 15:00:00+00:00,-813.9839091246454
2025-01-22 16:00:00+00:00,-826.6729539907935
2025-01-22 17:00:00+00:00,-804.141537318805
2025-01-22 18:00:00+00:00,-767.2326464836445
2025-01-22 19:00:00+00:00,-768.2322408289373
2025-01-22 20:00:00+00:00,-742.5527830701169
2025-01-23 14:00:00+00:00,-763.258526290221
2025-01-23 15:00:00+00:00,-720.7217919096483
2025-01-23 16:00:00+00:00,-732.5350459437053
2025-01-23 17:00:00+00:00,-741.6153829400905
2025-01-23 18:00:00+00:00,-734.9898549813295
2025-01-23 19:00:00+00:00,-719.900437198453
2025-01-23 20:00:00+00:00,-731.4344203969162
2025-01-24 14:00:00+00:00,-673.9562536483553
2025-01-24 15:00:00+00:00,-650.9400806818466
2025-01-24 16:00:00+00:00,-653.4378978046365
2025-01-24 17:00:00+00:00,-649.6234529108325
2025-01-24 18:00:00+00:00,-668.1300267440619
2025-01-24 19:00:00+00:00,-679.2357042644677
2025-01-24 20:00:00+00:00,-670.3336035087309
2025-01-27 14:00:00+00:00,-764.0268252152506
2025-01-27 15:00:00+00:00,-707.779830021527
2025-01-27 16:00:00+00:00,-670.7069110116684
2025-01-27 17:00:00+00:00,-652.884647137125
2025-01-27 18:00:00+00:00,-686.0936658182306
2025-01-27 19:00:00+00:00,-681.2141170420824
2025-01-27 20:00:00+00:00,-664.0885115369254
2025-01-28 14:00:00+00:00,-596.5500685100973
2025-01-28 15:00:00+00:00,-582.9012093053909
2025-01-28 16:00:00+00:00,-584.4714860412946
2025-01-28 17:00:00+00:00,-588.1859286192829
2025-01-28 18:00:00+00:00,-595.8756171339458
2025-01-28 19:00:00+00:00,-615.7684054749128
2025-01-28 20:00:00+00:00,-598.1118733073305
2025-01-29 14:00:00+00:00,-585.3903043806763
2025-01-29 15:00:00+00:00,-605.1191795470937
2025-01-29 16:00:00+00:00,-595.2153340261966
2025-01-29 17:00:00+00:00,-584.4447279312355
2025-01-29 18:00:00+00:00,-588.2441311959004
2025-01-29 19:00:00+00:00,-606.1347723005938
2025-01-29 20:00:00+00:00,-605.8307177097552
2025-01-30 14:00:00+00:00,-642.218812317195
2025-01-30 15:00:00+00:00,-637.5014579294373
2025-01-30 16:00:00+00:00,-581.5317592164929
2025-01-30 17:00:00+00:00,-607.6437998161714
2025-01-30 18:00:00+00:00,-584.081415280124
2025-01-30 19:00:00+00:00,-581.132747583341
2025-01-30 20:00:00+00:00,-575.3566128984149
2025-01-31 14:00:00+00:00,-482.9335385239638
2025-01-31 15:00:00+00:00,-494.96959509839104
2025-01-31 16:00:00+00:00,-486.2381775157901
2025-01-31 17:00:00+00:00,-497.5202345390649
2025-01-31 18:00:00+00:00,-458.71608930303637
2025-01-31 19:00:00+00:00,-476.5693920561052
2025-01-31 20:00:00+00:00,-478.2699575781908
2025-02-03 14:00:00+00:00,-524.0943927300016
2025-02-03 15:00:00+00:00,-538.351406626808
2025-02-03 16:00:00+00:00,-537.3897990267368
2025-02-03 17:00:00+00:00,-549.4526459641651
2025-02-03 18:00:00+00:00,-531.3358534172995
2025-02-03 19:00:00+00:00,-546.8505720100777
2025-02-03 20:00:00+00:00,-531.6744441546327
2025-02-04 14:00:00+00:00,-615.5001309650197
2025-02-04 15:00:00+00:00,-580.5994603664957
2025-02-04 16:00:00+00:00,-579.9403400942914
2025-02-04 17:00:00+00:00,-594.1592767010105
2025-02-04 18:00:00+00:00,-590.2603205841842
2025-02-04 19:00:00+00:00,-558.6588321159949
2025-02-04 20:00:00+00:00,-559.3522635657697
2025-02-05 14:00:00+00:00,-550.8023898242639
2025-02-05 15:00:00+00:00,-589.2548315382098
2025-02-05 16:00:00+00:00,-564.3831278600798
2025-02-05 17:00:00+00:00,-543.9352005472908
2025-02-05 18:00:00+00:00,-551.8081360921037
2025-02-05 19:00:00+00:00,-553.5423188895239
2025-02-05 20:00:00+00:00,-548.8940045418174
2025-02-06 14:00:00+00:00,-481.39874905865713
2025-02-06 15:00:00+00:00,-469.6745251115037
2025-02-06 16:00:00+00:00,-478.0954978712989
2025-02-06 17:00:00+00:00,-473.2907850191618
2025-02-06 18:00:00+00:00,-453.9700479608277
2025-02-06 19:00:00+00:00,-493.0464121511894
2025-02-06 20:00:00+00:00,-516.9123373085388
2025-02-07 14:00:00+00:00,-563.4304288790479
2025-02-07 15:00:00+00:00,-547.4559510932382
2025-02-07 16:00:00+00:00,-560.5510451866985
2025-02-07 17:00:00+00:00,-568.3732085538013
2025-02-07 18:00:00+00:00,-554.4111289173519
2025-02-07 19:00:00+00:00,-519.3413393602026
2025-02-07 20:00:00+00:00,-513.2357342684262
2025-02-10 14:00:00+00:00,-591.7164352352266
2025-02-10 15:00:00+00:00,-593.2064376409525
2025-02-10 16:00:00+00:00,-613.3651120496085
2025-02-10 17:00:00+00:00,-608.53096002688
2025-02-10 18:00:00+00:00,-635.3530746641642
2025-02-10 19:00:00+00:00,-643.6258636363357
2025-02-10 20:00:00+00:00,-652.7055067304856
2025-02-11 14:00:00+00:00,-699.438952133408
2025-02-11 15:00:00+00:00,-732.6005681195528
2025-02-11 16:00:00+00:00,-765.0515838096563
2025-02-11 17:00:00+00:00,-754.0933587458339
2025-02-11 18:00:00+00:00,-745.9389369910314
2025-02-11 19:00:00+00:00,-719.6196356367583
2025-02-11 20:00:00+00:00,-737.2852430985948
2025-02-12 14:00:00+00:00,-767.0994692296127
2025-02-12 15:00:00+00:00,-763.9345743396809
2025-02-12 16:00:00+00:00,-738.3438439372611
2025-02-12 17:00:00+00:00,-672.3490989947798
2025-02-12 18:00:00+00:00,-610.7598758127818
2025-02-12 19:00:00+00:00,-603.6496550357668
2025-02-12 20:00:00+00:00,-585.2637674674445
2025-02-13 14:00:00+00:00,-566.9476460943478
2025-02-13 15:00:00+00:00,-550.8173992004603
2025-02-13 16:00:00+00:00,-570.2783170410577
2025-02-13 17:00:00+00:00,-567.5084918615463
2025-02-13 18:00:00+00:00,-563.5652511594153
2025-02-13 19:00:00+00:00,-558.9523338788579
2025-02-13 20:00:00+00:00,-592.0452117398427
2025-02-14 14:00:00+00:00,-665.23771538222
2025-02-14 15:00:00+00:00,-656.4438407075202
2025-02-14 16:00:00+00:00,-649.7829032415269
2025-02-14 17:00:00+00:00,-628.7604693920932
2025-02-14 18:00:00+00:00,-643.4704162560082
2025-02-14 19:00:00+00:00,-619.1451040801134
2025-02-14 20:00:00+00:00,-598.600973503378
2025-02-18 14:00:00+00:00,-608.3984804862723
2025-02-18 15:00:00+00:00,-604.4093186637097
2025-02-18 16:00:00+00:00,-659.312234074125
2025-02-18 17:00:00+00:00,-684.8691222322842
2025-02-18 18:00:00+00:00,-683.4122681685836
2025-02-18 19:00:00+00:00,-676.5611032113825
2025-02-18 20:00:00+00:00,-642.3408863865714
2025-02-19 14:00:00+00:00,-679.0654610884986
2025-02-19 15:00:00+00:00,-646.6157426562138
2025-02-19 16:00:00+00:00,-662.0690776063917
2025-02-19 17:00:00+00:00,-642.9206859520982
2025-02-19 18:00:00+00:00,-699.6905343310738
2025-02-19 19:00:00+00:00,-716.7360187115704
2025-02-19 20:00:00+00:00,-726.2983804001477
2025-02-20 14:00:00+00:00,-709.4888703248877
2025-02-20 15:00:00+00:00,-687.547548172152
2025-02-20 16:00:00+00:00,-707.8743325958159
2025-02-20 17:00:00+00:00,-695.4088885318266
2025-02-20 18:00:00+00:00,-678.7470455285614
2025-02-20 19:00:00+00:00,-722.5759881401672
2025-02-20 20:00:00+00:00,-724.3519572070895
2025-02-21 14:00:00+00:00,-695.6840948065441
2025-02-21 15:00:00+00:00,-704.9626622994975
2025-02-21 16:00:00+00:00,-695.6699542949372
2025-02-21 17:00:00+00:00,-662.5922450156249
2025-02-21 18:00:00+00:00,-655.2561622712454
2025-02-21 19:00:00+00:00,-660.2165210886614
2025-02-21 20:00:00+00:00,-675.7582681398575
2025-02-24 14:00:00+00:00,-691.2924812499923
2025-02-24 15:00:00+00:00,-706.9819433677181
2025-02-24 16:00:00+00:00,-710.4129061050528
2025-02-24 17:00:00+00:00,-710.8466333432021
2025-02-24 18:00:00+00:00,-732.6841675979496
2025-02-24 19:00:00+00:00,-731.5915450565207
2025-02-24 20:00:00+00:00,-739.6743505018691
2025-02-25 14:00:00+00:00,-668.7905993266186
2025-02-25 15:00:00+00:00,-686.8376711886821
2025-02-25 16:00:00+00:00,-659.8753444847764
2025-02-25 17:00:00+00:00,-676.7371895045723
2025-02-25 18:00:00+00:00,-671.1331940380061
2025-02-25 19:00:00+00:00,-698.8312018687343
2025-02-25 20:00:00+00:00,-664.680705728726
2025-02-26 14:00:00+00:00,-621.6664347707131
2025-02-26 15:00:00+00:00,-595.1632056105469
2025-02-26 16:00:00+00:00,-570.8642471172847
2025-02-26 17:00:00+00:00,-534.702708379445
2025-02-26 18:00:00+00:00,-550.8745290139892
2025-02-26 19:00:00+00:00,-574.6732851561652
2025-02-26 20:00:00+00:00,-600.0212097138781
2025-02-27 14:00:00+00:00,-651.4632480910793
2025-02-27 15:00:00+00:00,-664.8796301275296
2025-02-27 16:00:00+00:00,-663.154130980223
2025-02-27 17:00:00+00:00,-656.5248629497128
2025-02-27 18:00:00+00:00,-670.4900342661006
2025-02-27 19:00:00+00:00,-640.6766814958195
2025-02-27 20:00:00+00:00,-642.1856639751687
2025-02-28 14:00:00+00:00,-342.33570460290525
2025-02-28 15:00:00+00:00,-330.76762193831473
2025-02-28 16:00:00+00:00,-337.8443477653917
2025-02-28 17:00:00+00:00,-381.7769487073519
2025-02-28 18:00:00+00:00,-351.26764610022303
2025-02-28 19:00:00+00:00,-344.81541501281026
2025-02-28 20:00:00+00:00,-416.3778132305629
2025-03-03 14:00:00+00:00,-182.61108784776343
2025-03-03 15:00:00+00:00,-259.3727167792997
2025-03-03 16:00:00+00:00,-327.9823913697395
2025-03-03 17:00:00+00:00,-226.22818440631784
2025-03-03 18:00:00+00:00,-205.25032659143272
2025-03-03 19:00:00+00:00,-187.04983157943795
2025-03-03 20:00:00+00:00,-191.55006512625297
2025-03-04 14:00:00+00:00,-176.80135204035628
2025-03-04 15:00:00+00:00,-193.9105093286614
2025-03-04 16:00:00+00:00,-267.256757505515
2025-03-04 17:00:00+00:00,-258.3594099742083
2025-03-04 18:00:00+00:00,-288.5035754453874
2025-03-04 19:00:00+00:00,-321.8561128249758
2025-03-04 20:00:00+00:00,-275.5486621341888
2025-03-05 14:00:00+00:00,-252.502001481975
2025-03-05 15:00:00+00:00,-215.40335208891577
2025-03-05 16:00:00+00:00,-272.72585974570734
2025-03-05 17:00:00+00:00,-277.11443762884676
2025-03-05 18:00:00+00:00,-308.3329394700682
2025-03-05 19:00:00+00:00,-324.90527552446895
2025-03-05 20:00:00+00:00,-322.55541722037833
2025-03-06 14:00:00+00:00,-332.1652796050218
2025-03-06 15:00:00+00:00,-330.10730926078264
2025-03-06 16:00:00+00:00,-329.2943678513433
2025-03-06 17:00:00+00:00,-309.374127498082
2025-03-06 18:00:00+00:00,-334.5750443611967
2025-03-06 19:00:00+00:00,-325.7058115210932
2025-03-06 20:00:00+00:00,-330.25571822954805
2025-03-07 14:00:00+00:00,-402.36852699998997
2025-03-07 15:00:00+00:00,-366.7194225675054
2025-03-07 16:00:00+00:00,-393.99412225219646
2025-03-07 17:00:00+00:00,-397.8660176576632
2025-03-07 18:00:00+00:00,-415.52491535000587
2025-03-07 19:00:00+00:00,-417.57905541905023
2025-03-07 20:00:00+00:00,-413.36525228418236
2025-03-10 13:00:00+00:00,-444.89653787677804
2025-03-10 14:00:00+00:00,-578.3095085144897
2025-03-10 15:00:00+00:00,-511.1016664771156
2025-03-10 16:00:00+00:00,-500.04434083860366
2025-03-10 17:00:00+00:00,-438.3421639177119
2025-03-10 18:00:00+00:00,-433.27679572984846
2025-03-10 19:00:00+00:00,-445.85106134264726
2025-03-11 13:00:00+00:00,-441.96710747548406
2025-03-11 14:00:00+00:00,-438.69455341516345
2025-03-11 15:00:00+00:00,-440.4460668776439
2025-03-11 16:00:00+00:00,-455.4886652143914
2025-03-11 17:00:00+00:00,-463.7189605451291
2025-03-11 18:00:00+00:00,-449.49622557295254
2025-03-11 19:00:00+00:00,-426.29011459004306
2025-03-12 13:00:00+00:00,-380.45041284016963
2025-03-12 14:00:00+00:00,-419.4915469818019
2025-03-12 15:00:00+00:00,-452.84456655218065
2025-03-12 16:00:00+00:00,-488.6777654657729
2025-03-12 17:00:00+00:00,-476.3453545735786
2025-03-12 18:00:00+00:00,-454.0583575493086
2025-03-12 19:00:00+00:00,-426.880015363697
2025-03-13 13:00:00+00:00,-345.8378318360393
2025-03-13 14:00:00+00:00,-337.33140286006727
2025-03-13 15:00:00+00:00,-314.3854650220942
2025-03-13 16:00:00+00:00,-300.788554774535
2025-03-13 17:00:00+00:00,-297.8666451878122
2025-03-13 18:00:00+00:00,-253.7343358723571
2025-03-13 19:00:00+00:00,-279.10763073565965
2025-03-14 13:00:00+00:00,-293.8140751490469
2025-03-14 14:00:00+00:00,-334.9425289250735
2025-03-14 15:00:00+00:00,-325.14596740953016
2025-03-14 16:00:00+00:00,-354.30998188738147
2025-03-14 17:00:00+00:00,-367.24872298683766
2025-03-14 18:00:00+00:00,-373.33694752090474
2025-03-14 19:00:00+00:00,-380.0317272311593
2025-03-17 13:00:00+00:00,-352.95531620575616
2025-03-17 14:00:00+00:00,-359.9276496186564
2025-03-17 15:00:00+00:00,-333.76231729358864
2025-03-17 16:00:00+00:00,-328.11742251894583
2025-03-17 17:00:00+00:00,-341.2724230644929
2025-03-17 18:00:00+00:00,-319.9131913960327
2025-03-17 19:00:00+00:00,-318.95936183239746
2025-03-18 13:00:00+00:00,-300.2014779628494
2025-03-18 14:00:00+00:00,-318.0998971039784
2025-03-18 15:00:00+00:00,-278.60791238835384
2025-03-18 16:00:00+00:00,-260.1942889896794
2025-03-18 17:00:00+00:00,-269.8138127447284
2025-03-18 18:00:00+00:00,-260.5608727792303
2025-03-18 19:00:00+00:00,-238.15059333961503
2025-03-19 13:00:00+00:00,-320.51748458961197
2025-03-19 14:00:00+00:00,-342.5101643097983
2025-03-19 15:00:00+00:00,-327.9929772680568
2025-03-19 16:00:00+00:00,-339.2665623526596
2025-03-19 17:00:00+00:00,-326.62301273542556
2025-03-19 18:00:00+00:00,-348.45915918570336
2025-03-19 19:00:00+00:00,-354.0446619519955
2025-03-20 13:00:00+00:00,-351.0278730863222
2025-03-20 14:00:00+00:00,-324.59531573505933
2025-03-20 15:00:00+00:00,-279.1095035735255
2025-03-20 16:00:00+00:00,-290.3311852114043
2025-03-20 17:00:00+00:00,-284.1126263807341
2025-03-20 18:00:00+00:00,-273.65341623267847
2025-03-20 19:00:00+00:00,-317.72581909604685
2025-03-21 13:00:00+00:00,-276.68944239384166
2025-03-21 14:00:00+00:00,-313.9586627126708
2025-03-21 15:00:00+00:00,-330.7002269246017
2025-03-21 16:00:00+00:00,-314.96077694706264
2025-03-21 17:00:00+00:00,-316.6681693814826
2025-03-21 18:00:00+00:00,-329.91122229364464
2025-03-21 19:00:00+00:00,-364.74667794475613
2025-03-24 13:00:00+00:00,-490.98700296629596
2025-03-24 14:00:00+00:00,-532.7391310452882
2025-03-24 15:00:00+00:00,-530.5149116328863
2025-03-24 16:00:00+00:00,-527.6453876836774
2025-03-24 17:00:00+00:00,-526.4320333669195
2025-03-24 18:00:00+00:00,-535.7281931290267
2025-03-24 19:00:00+00:00,-548.5281412506893
2025-03-25 13:00:00+00:00,-484.8182468801842
2025-03-25 14:00:00+00:00,-467.4920907331314
2025-03-25 15:00:00+00:00,-486.15436916855447
2025-03-25 16:00:00+00:00,-456.47420835747255
2025-03-25 17:00:00+00:00,-465.6883989623512
2025-03-25 18:00:00+00:00,-450.1119494326506
2025-03-25 19:00:00+00:00,-432.1001076193165
2025-03-26 13:00:00+00:00,-520.5269682899453
2025-03-26 14:00:00+00:00,-516.9891259746862
2025-03-26 15:00:00+00:00,-492.60327795035425
2025-03-26 16:00:00+00:00,-515.4982502082231
2025-03-26 17:00:00+00:00,-495.20557687336725
2025-03-26 18:00:00+00:00,-480.55784382357774
2025-03-26 19:00:00+00:00,-493.78348392508724
2025-03-27 13:00:00+00:00,-433.9446157522524
2025-03-27 14:00:00+00:00,-434.68999615917437
2025-03-27 15:00:00+00:00,-403.55673882268815
2025-03-27 16:00:00+00:00,-357.6820642459501
2025-03-27 17:00:00+00:00,-363.4063277370938
2025-03-27 18:00:00+00:00,-379.7614854742453
2025-03-27 19:00:00+00:00,-367.15221478163863
2025-03-28 13:00:00+00:00,-344.43265335476417
2025-03-28 14:00:00+00:00,-362.84838166466665
2025-03-28 15:00:00+00:00,-333.53649696230985
2025-03-28 16:00:00+00:00,-383.0264386865192
2025-03-28 17:00:00+00:00,-405.91999088697634
2025-03-28 18:00:00+00:00,-407.567509122254
2025-03-28 19:00:00+00:00,-395.23509823005895
2025-03-31 13:00:00+00:00,-489.2049680255458
2025-03-31 14:00:00+00:00,-496.4269521613305
2025-03-31 15:00:00+00:00,-513.3848979325343
2025-03-31 16:00:00+00:00,-488.4598770934322
2025-03-31 17:00:00+00:00,-498.51941395904146
2025-03-31 18:00:00+00:00,-492.13140342092964
2025-03-31 19:00:00+00:00,-460.8992099301438
2025-04-01 13:00:00+00:00,-462.0120208911646
2025-04-01 14:00:00+00:00,-505.6434595198706
2025-04-01 15:00:00+00:00,-508.3587353863026
2025-04-01 16:00:00+00:00,-502.1635948123038
2025-04-01 17:00:00+00:00,-513.5501336358009
2025-04-01 18:00:00+00:00,-509.23927944282303
2025-04-01 19:00:00+00:00,-531.4589532167879
2025-04-02 13:00:00+00:00,-548.3100221610656
2025-04-02 14:00:00+00:00,-569.9092092076816
2025-04-02 15:00:00+00:00,-575.3385061855275
2025-04-02 16:00:00+00:00,-580.7497609563702
2025-04-02 17:00:00+00:00,-570.8290170685542
2025-04-02 18:00:00+00:00,-559.346647842007
2025-04-02 19:00:00+00:00,-562.9544358109943
2025-04-03 13:00:00+00:00,-339.2930926511895
2025-04-03 14:00:00+00:00,-325.7062448097976
2025-04-03 15:00:00+00:00,-317.37147672725337
2025-04-03 16:00:00+00:00,-324.95815304855097
2025-04-03 17:00:00+00:00,-314.07855421634656
2025-04-03 18:00:00+00:00,-314.1480631897062
2025-04-03 19:00:00+00:00,-303.18328321511774
2025-04-04 13:00:00+00:00,-80.58378012268278
2025-04-04 14:00:00+00:00,-44.04586995876386
2025-04-04 15:00:00+00:00,-9.16650060880604
2025-04-04 16:00:00+00:00,-23.406827850136327
2025-04-04 17:00:00+00:00,29.260088608759897
2025-04-04 18:00:00+00:00,59.68275890668467
2025-04-04 19:00:00+00:00,31.09828427309467
2025-04-07 13:00:00+00:00,61.31499439104302
2025-04-07 14:00:00+00:00,111.49936032521404
2025-04-07 15:00:00+00:00,47.16107448999004
2025-04-07 16:00:00+00:00,21.458823663568374
2025-04-07 17:00:00+00:00,13.21067884181215
2025-04-07 18:00:00+00:00,61.297838802256905
2025-04-07 19:00:00+00:00,11.632187389102455
2025-04-08 13:00:00+00:00,-3.3779071876970512
2025-04-08 14:00:00+00:00,70.66986551674955
2025-04-08 15:00:00+00:00,24.41264099340836
2025-04-08 16:00:00+00:00,112.54994766241593
2025-04-08 17:00:00+00:00,73.61383021648011
2025-04-08 18:00:00+00:00,84.7397904752654
2025-04-08 19:00:00+00:00,90.34964179647983
2025-04-09 13:00:00+00:00,-34.11684690102862
2025-04-09 14:00:00+00:00,-16.499293141065714
2025-04-09 15:00:00+00:00,-11.479028214770683
2025-04-09 16:00:00+00:00,-208.55320644925413
2025-04-09 17:00:00+00:00,-240.17756139496979
2025-04-09 18:00:00+00:00,-195.020962418419
2025-04-09 19:00:00+00:00,-185.7943438826127
2025-04-10 13:00:00+00:00,72.58719022349018
2025-04-10 14:00:00+00:00,101.2089941602895
2025-04-10 15:00:00+00:00,180.78352601448603
2025-04-10 16:00:00+00:00,181.5927325347351
2025-04-10 17:00:00+00:00,158.297501392463
2025-04-10 18:00:00+00:00,192.2830185768782
2025-04-10 19:00:00+00:00,132.20342626604045
2025-04-11 13:00:00+00:00,136.70079413146124
2025-04-11 14:00:00+00:00,107.06985972361602
2025-04-11 15:00:00+00:00,55.58369511872601
2025-04-11 16:00:00+00:00,22.380247140440602
2025-04-11 17:00:00+00:00,-12.013009333850668
2025-04-11 18:00:00+00:00,-56.881468709437165
2025-04-11 19:00:00+00:00,-23.11235968048633
2025-04-14 13:00:00+00:00,20.701290095359404
2025-04-14 14:00:00+00:00,68.39724871203063
2025-04-14 15:00:00+00:00,94.20518968464216
2025-04-14 16:00:00+00:00,96.28712906030287
2025-04-14 17:00:00+00:00,57.47142020566711
2025-04-14 18:00:00+00:00,63.264241546068405
2025-04-14 19:00:00+00:00,43.12704784448223
2025-04-15 13:00:00+00:00,42.93685260621512
2025-04-15 14:00:00+00:00,31.263594239166757
2025-04-15 15:00:00+00:00,47.896787869754704
2025-04-15 16:00:00+00:00,52.37107919093944
2025-04-15 17:00:00+00:00,55.37140637006148
2025-04-15 18:00:00+00:00,27.629484840488544
2025-04-15 19:00:00+00:00,44.652928690750386
2025-04-16 13:00:00+00:00,17.083367613591065
2025-04-16 14:00:00+00:00,11.033666784807572
2025-04-16 15:00:00+00:00,13.102127984564785
2025-04-16 16:00:00+00:00,-4.184729056734955
2025-04-16 17:00:00+00:00,36.45176265158386
2025-04-16 18:00:00+00:00,53.95073347919283
2025-04-16 19:00:00+00:00,41.2205515527559
2025-04-17 13:00:00+00:00,-22.082454295627862
2025-04-17 14:00:00+00:00,-34.291807741403275
2025-04-17 15:00:00+00:00,-81.50151871693112
2025-04-17 16:00:00+00:00,-52.26008246380373
2025-04-17 17:00:00+00:00,-79.25700313371927
2025-04-17 18:00:00+00:00,-58.02788079293866
2025-04-17 19:00:00+00:00,-16.150582755568124
2025-04-21 13:00:00+00:00,38.65537684505823
2025-04-21 14:00:00+00:00,40.01636307690286
2025-04-21 15:00:00+00:00,50.10175243889343
2025-04-21 16:00:00+00:00,80.03764821186091
2025-04-21 17:00:00+00:00,75.65020091132313
2025-04-21 18:00:00+00:00,62.55510681786038
2025-04-21 19:00:00+00:00,23.28832242030763
2025-04-22 13:00:00+00:00,-38.967574101406136
2025-04-22 14:00:00+00:00,-46.78245543576733
2025-04-22 15:00:00+00:00,-87.24332978420546
2025-04-22 16:00:00+00:00,-18.74350412623218
2025-04-22 17:00:00+00:00,-41.7673773658113
2025-04-22 18:00:00+00:00,-45.75653918837402
2025-04-22 19:00:00+00:00,-42.00995824159232
2025-04-23 13:00:00+00:00,-10.121281296542428
2025-04-23 14:00:00+00:00,-18.440097927203585
2025-04-23 15:00:00+00:00,-34.986626995648635
2025-04-23 16:00:00+00:00,-68.82480831759025
2025-04-23 17:00:00+00:00,-65.25242985583445
2025-04-23 18:00:00+00:00,-37.57567191804794
2025-04-23 19:00:00+00:00,-68.59981971096136
2025-04-24 13:00:00+00:00,-115.9229086656712
2025-04-24 14:00:00+00:00,-105.88892156415326
2025-04-24 15:00:00+00:00,-116.79785170359787
2025-04-24 16:00:00+00:00,-134.0035332971872
2025-04-24 17:00:00+00:00,-134.35059597319207
2025-04-24 18:00:00+00:00,-116.41651010296324
2025-04-24 19:00:00+00:00,-144.91315733886748
2025-04-25 13:00:00+00:00,-126.0435280763916
2025-04-25 14:00:00+00:00,-127.94625756918943
2025-04-25 15:00:00+00:00,-138.9991352898259
2025-04-25 16:00:00+00:00,-106.00095643188754
2025-04-25 17:00:00+00:00,-106.49594567365006
2025-04-25 18:00:00+00:00,-111.76456406501296
2025-04-25 19:00:00+00:00,-123.18057381765311
2025-04-28 13:00:00+00:00,-145.03384360377376
2025-04-28 14:00:00+00:00,-127.74244857214116
2025-04-28 15:00:00+00:00,-159.82976044118692
2025-04-28 16:00:00+00:00,-150.62894889133997
2025-04-28 17:00:00+00:00,-175.66024595278282
2025-04-28 18:00:00+00:00,-178.665110779033
2025-04-28 19:00:00+00:00,-176.1673259091839
2025-04-29 13:00:00+00:00,-89.62911203926035
2025-04-29 14:00:00+00:00,-150.80155186045215
2025-04-29 15:00:00+00:00,-147.4802262131494
2025-04-29 16:00:00+00:00,-152.9959627842143
2025-04-29 17:00:00+00:00,-168.33342754480395
2025-04-29 18:00:00+00:00,-166.52457240438193
2025-04-29 19:00:00+00:00,-116.34700112960563
2025-04-30 13:00:00+00:00,-40.15040282276624
2025-04-30 14:00:00+00:00,-39.21238539326387
2025-04-30 15:00:00+00:00,-39.21238539326387
2025-04-30 16:00:00+00:00,-39.21238539326387
2025-04-30 17:00:00+00:00,-39.21238539326387
2025-04-30 18:00:00+00:00,-39.21238539326387
2025-04-30 19:00:00+00:00,-39.21238539326387
2025-05-01 13:00:00+00:00,-39.21238539326387
2025-05-01 14:00:00+00:00,-39.21238539326387
2025-05-01 15:00:00+00:00,-39.21238539326387
2025-05-01 16:00:00+00:00,-39.21238539326387
2025-05-01 17:00:00+00:00,-39.21238539326387
2025-05-01 18:00:00+00:00,-39.21238539326387
2025-05-01 19:00:00+00:00,-39.21238539326387
2025-05-02 13:00:00+00:00,-39.21238539326387
2025-05-02 14:00:00+00:00,-39.21238539326387
2025-05-02 15:00:00+00:00,-39.21238539326387
2025-05-02 16:00:00+00:00,-39.21238539326387
2025-05-02 17:00:00+00:00,-39.21238539326387
2025-05-02 18:00:00+00:00,-39.21238539326387
2025-05-02 19:00:00+00:00,-39.21238539326387
2025-05-05 13:00:00+00:00,-39.21238539326387
2025-05-05 14:00:00+00:00,-39.21238539326387
2025-05-05 15:00:00+00:00,-39.21238539326387
2025-05-05 16:00:00+00:00,-39.21238539326387
2025-05-05 17:00:00+00:00,-39.21238539326387
2025-05-05 18:00:00+00:00,-39.21238539326387
2025-05-05 19:00:00+00:00,-39.21238539326387
2025-05-06 13:00:00+00:00,-39.21238539326387
2025-05-06 14:00:00+00:00,-39.21238539326387
2025-05-06 15:00:00+00:00,-39.21238539326387
2025-05-06 16:00:00+00:00,-39.21238539326387
2025-05-06 17:00:00+00:00,-39.21238539326387
2025-05-06 18:00:00+00:00,-39.21238539326387
2025-05-06 19:00:00+00:00,-39.21238539326387
2025-05-07 13:00:00+00:00,-39.21238539326387
2025-05-07 14:00:00+00:00,-39.21238539326387
2025-05-07 15:00:00+00:00,-39.21238539326387
2025-05-07 16:00:00+00:00,-39.21238539326387
2025-05-07 17:00:00+00:00,-39.21238539326387
2025-05-07 18:00:00+00:00,-39.21238539326387
2025-05-07 19:00:00+00:00,-39.21238539326387
2025-05-08 13:00:00+00:00,-39.21238539326387
2025-05-08 14:00:00+00:00,-39.21238539326387
2025-05-08 15:00:00+00:00,-39.21238539326387
2025-05-08 16:00:00+00:00,-39.21238539326387
2025-05-08 17:00:00+00:00,-39.21238539326387
2025-05-08 18:00:00+00:00,-39.21238539326387
2025-05-08 19:00:00+00:00,-39.21238539326387
2025-05-09 13:00:00+00:00,-39.21238539326387
2025-05-09 14:00:00+00:00,-39.21238539326387
2025-05-09 15:00:00+00:00,-39.21238539326387
2025-05-09 16:00:00+00:00,-39.21238539326387
2025-05-09 17:00:00+00:00,-39.21238539326387
2025-05-09 18:00:00+00:00,-39.21238539326387
2025-05-09 19:00:00+00:00,-39.21238539326387
2025-05-12 13:00:00+00:00,-39.21238539326387
2025-05-12 14:00:00+00:00,-39.21238539326387
2025-05-12 15:00:00+00:00,-39.21238539326387
2025-05-12 16:00:00+00:00,-39.21238539326387
2025-05-12 17:00:00+00:00,-39.21238539326387
2025-05-12 18:00:00+00:00,-39.21238539326387
2025-05-12 19:00:00+00:00,-39.21238539326387
2025-05-13 13:00:00+00:00,-39.21238539326387
2025-05-13 14:00:00+00:00,-39.21238539326387
2025-05-13 15:00:00+00:00,-39.21238539326387
2025-05-13 16:00:00+00:00,-39.21238539326387
2025-05-13 17:00:00+00:00,-39.21238539326387
2025-05-13 18:00:00+00:00,-39.21238539326387
2025-05-13 19:00:00+00:00,-39.21238539326387
2025-05-14 13:00:00+00:00,-39.21238539326387
2025-05-14 14:00:00+00:00,-39.21238539326387
2025-05-14 15:00:00+00:00,-39.21238539326387
2025-05-14 16:00:00+00:00,-39.21238539326387
2025-05-14 17:00:00+00:00,-39.21238539326387
2025-05-14 18:00:00+00:00,-39.21238539326387
2025-05-14 19:00:00+00:00,-39.21238539326387
2025-05-15 13:00:00+00:00,-39.21238539326387
2025-05-15 14:00:00+00:00,-39.21238539326387
2025-05-15 15:00:00+00:00,-39.21238539326387
2025-05-15 16:00:00+00:00,-39.21238539326387
2025-05-15 17:00:00+00:00,-39.21238539326387
2025-05-15 18:00:00+00:00,-39.21238539326387
2025-05-15 19:00:00+00:00,-39.21238539326387
2025-05-16 13:00:00+00:00,-39.21238539326387
2025-05-16 14:00:00+00:00,-39.21238539326387
2025-05-16 15:00:00+00:00,-39.21238539326387
2025-05-16 16:00:00+00:00,-39.21238539326387
2025-05-16 17:00:00+00:00,-39.21238539326387
2025-05-16 18:00:00+00:00,-39.21238539326387
2025-05-16 19:00:00+00:00,-39.21238539326387
2025-05-19 13:00:00+00:00,-39.21238539326387
2025-05-19 14:00:00+00:00,-39.21238539326387
2025-05-19 15:00:00+00:00,-39.21238539326387
2025-05-19 16:00:00+00:00,-39.21238539326387
2025-05-19 17:00:00+00:00,-39.21238539326387
2025-05-19 18:00:00+00:00,-39.21238539326387
2025-05-19 19:00:00+00:00,-39.21238539326387
2025-05-20 13:00:00+00:00,-39.21238539326387
2025-05-20 14:00:00+00:00,-39.21238539326387
2025-05-20 15:00:00+00:00,-39.21238539326387
2025-05-20 16:00:00+00:00,-39.21238539326387
2025-05-20 17:00:00+00:00,-39.21238539326387
2025-05-20 18:00:00+00:00,-39.21238539326387
2025-05-20 19:00:00+00:00,-39.21238539326387
2025-05-21 13:00:00+00:00,-39.21238539326387
2025-05-21 14:00:00+00:00,-39.21238539326387
2025-05-21 15:00:00+00:00,-39.21238539326387
2025-05-21 16:00:00+00:00,-39.21238539326387
2025-05-21 17:00:00+00:00,-39.21238539326387
2025-05-21 18:00:00+00:00,-39.21238539326387
2025-05-21 19:00:00+00:00,-39.21238539326387
2025-05-22 13:00:00+00:00,-39.21238539326387
2025-05-22 14:00:00+00:00,-39.21238539326387
2025-05-22 15:00:00+00:00,-39.21238539326387
2025-05-22 16:00:00+00:00,-39.21238539326387
2025-05-22 17:00:00+00:00,-39.21238539326387
2025-05-22 18:00:00+00:00,-39.21238539326387
2025-05-22 19:00:00+00:00,-39.21238539326387
2025-05-23 13:00:00+00:00,-39.21238539326387
2025-05-23 14:00:00+00:00,-39.21238539326387
2025-05-23 15:00:00+00:00,-39.21238539326387
2025-05-23 16:00:00+00:00,-39.21238539326387
2025-05-23 17:00:00+00:00,-39.21238539326387
2025-05-23 18:00:00+00:00,-39.21238539326387
2025-05-23 19:00:00+00:00,-39.21238539326387
2025-05-27 13:00:00+00:00,-39.21238539326387
2025-05-27 14:00:00+00:00,-39.21238539326387
2025-05-27 15:00:00+00:00,-39.21238539326387
2025-05-27 16:00:00+00:00,-39.21238539326387
2025-05-27 17:00:00+00:00,-39.21238539326387
2025-05-27 18:00:00+00:00,-39.21238539326387
2025-05-27 19:00:00+00:00,-39.21238539326387
2025-05-28 13:00:00+00:00,-39.21238539326387
2025-05-28 14:00:00+00:00,-39.21238539326387
2025-05-28 15:00:00+00:00,-39.21238539326387
2025-05-28 16:00:00+00:00,-39.21238539326387
2025-05-28 17:00:00+00:00,-39.21238539326387
2025-05-28 18:00:00+00:00,-39.21238539326387
2025-05-28 19:00:00+00:00,-39.21238539326387
2025-05-29 13:00:00+00:00,-39.21238539326387
2025-05-29 14:00:00+00:00,-39.21238539326387
2025-05-29 15:00:00+00:00,-39.21238539326387
2025-05-29 16:00:00+00:00,-39.21238539326387
2025-05-29 17:00:00+00:00,-39.21238539326387
2025-05-29 18:00:00+00:00,-39.21238539326387
2025-05-29 19:00:00+00:00,-39.21238539326387
2025-05-30 13:00:00+00:00,-39.21238539326387
2025-05-30 14:00:00+00:00,-39.21238539326387
2025-05-30 15:00:00+00:00,-39.21238539326387
2025-05-30 16:00:00+00:00,-39.21238539326387
2025-05-30 17:00:00+00:00,-39.21238539326387
2025-05-30 18:00:00+00:00,-39.21238539326387
2025-05-30 19:00:00+00:00,-39.21238539326387
2025-06-02 13:00:00+00:00,-39.21238539326387
2025-06-02 14:00:00+00:00,-39.21238539326387
2025-06-02 15:00:00+00:00,-39.21238539326387
2025-06-02 16:00:00+00:00,-39.21238539326387
2025-06-02 17:00:00+00:00,-39.21238539326387
2025-06-02 18:00:00+00:00,-39.21238539326387
2025-06-02 19:00:00+00:00,-39.21238539326387
2025-06-03 13:00:00+00:00,-39.21238539326387
2025-06-03 14:00:00+00:00,-39.21238539326387
2025-06-03 15:00:00+00:00,-39.21238539326387
2025-06-03 16:00:00+00:00,-39.21238539326387
2025-06-03 17:00:00+00:00,-39.21238539326387
2025-06-03 18:00:00+00:00,-39.21238539326387
2025-06-03 19:00:00+00:00,-39.21238539326387
2025-06-04 13:00:00+00:00,-39.21238539326387
2025-06-04 14:00:00+00:00,-39.21238539326387
2025-06-04 15:00:00+00:00,-39.21238539326387
2025-06-04 16:00:00+00:00,-39.21238539326387
2025-06-04 17:00:00+00:00,-39.21238539326387
2025-06-04 18:00:00+00:00,-39.21238539326387
2025-06-04 19:00:00+00:00,-39.21238539326387
2025-06-05 13:00:00+00:00,-39.21238539326387
2025-06-05 14:00:00+00:00,-39.21238539326387
2025-06-05 15:00:00+00:00,-39.21238539326387
2025-06-05 16:00:00+00:00,-39.21238539326387
2025-06-05 17:00:00+00:00,-39.21238539326387
2025-06-05 18:00:00+00:00,-39.21238539326387
2025-06-05 19:00:00+00:00,-39.21238539326387
2025-06-06 13:00:00+00:00,-39.21238539326387
2025-06-06 14:00:00+00:00,-39.21238539326387
2025-06-06 15:00:00+00:00,-39.21238539326387
2025-06-06 16:00:00+00:00,-39.21238539326387
2025-06-06 17:00:00+00:00,-39.21238539326387
2025-06-06 18:00:00+00:00,-39.21238539326387
2025-06-06 19:00:00+00:00,-39.21238539326387
2025-06-09 13:00:00+00:00,-39.21238539326387
2025-06-09 14:00:00+00:00,-39.21238539326387
2025-06-09 15:00:00+00:00,-39.21238539326387
2025-06-09 16:00:00+00:00,-39.21238539326387
2025-06-09 17:00:00+00:00,-39.21238539326387
2025-06-09 18:00:00+00:00,-39.21238539326387
2025-06-09 19:00:00+00:00,-39.21238539326387
2025-06-10 13:00:00+00:00,-39.21238539326387
2025-06-10 14:00:00+00:00,-39.21238539326387
2025-06-10 15:00:00+00:00,-39.21238539326387
2025-06-10 16:00:00+00:00,-39.21238539326387
2025-06-10 17:00:00+00:00,-39.21238539326387
2025-06-10 18:00:00+00:00,-39.21238539326387
2025-06-10 19:00:00+00:00,-39.21238539326387
2025-06-11 13:00:00+00:00,-39.21238539326387
2025-06-11 14:00:00+00:00,-39.21238539326387
2025-06-11 15:00:00+00:00,-39.21238539326387
2025-06-11 16:00:00+00:00,-39.21238539326387
2025-06-11 17:00:00+00:00,-39.21238539326387
2025-06-11 18:00:00+00:00,-39.21238539326387
2025-06-11 19:00:00+00:00,-39.21238539326387
2025-06-12 13:00:00+00:00,-39.21238539326387
2025-06-12 14:00:00+00:00,-39.21238539326387
2025-06-12 15:00:00+00:00,-39.21238539326387
2025-06-12 16:00:00+00:00,-39.21238539326387
2025-06-12 17:00:00+00:00,-39.21238539326387
2025-06-12 18:00:00+00:00,-39.21238539326387
2025-06-12 19:00:00+00:00,-39.21238539326387
2025-06-13 13:00:00+00:00,-39.21238539326387
2025-06-13 14:00:00+00:00,-39.21238539326387
2025-06-13 15:00:00+00:00,-39.21238539326387
2025-06-13 16:00:00+00:00,-39.21238539326387
2025-06-13 17:00:00+00:00,-39.21238539326387
2025-06-13 18:00:00+00:00,-39.21238539326387
2025-06-13 19:00:00+00:00,-39.21238539326387
2025-06-16 13:00:00+00:00,-39.21238539326387
2025-06-16 14:00:00+00:00,-39.21238539326387
2025-06-16 15:00:00+00:00,-39.21238539326387
2025-06-16 16:00:00+00:00,-39.21238539326387
2025-06-16 17:00:00+00:00,-39.21238539326387
2025-06-16 18:00:00+00:00,-39.21238539326387
2025-06-16 19:00:00+00:00,-39.21238539326387
2025-06-17 13:00:00+00:00,-39.21238539326387
2025-06-17 14:00:00+00:00,-39.21238539326387
2025-06-17 15:00:00+00:00,-39.21238539326387
2025-06-17 16:00:00+00:00,-39.21238539326387
2025-06-17 17:00:00+00:00,-39.21238539326387
2025-06-17 18:00:00+00:00,-39.21238539326387
2025-06-17 19:00:00+00:00,-39.21238539326387
2025-06-18 13:00:00+00:00,-39.21238539326387
2025-06-18 14:00:00+00:00,-39.21238539326387
2025-06-18 15:00:00+00:00,-39.21238539326387
2025-06-18 16:00:00+00:00,-39.21238539326387
2025-06-18 17:00:00+00:00,-39.21238539326387
2025-06-18 18:00:00+00:00,-39.21238539326387
2025-06-18 19:00:00+00:00,-39.21238539326387
2025-06-20 13:00:00+00:00,-39.21238539326387
2025-06-20 14:00:00+00:00,-39.21238539326387
2025-06-20 15:00:00+00:00,-39.21238539326387
2025-06-20 16:00:00+00:00,-39.21238539326387
2025-06-20 17:00:00+00:00,-39.21238539326387
2025-06-20 18:00:00+00:00,-39.21238539326387
2025-06-20 19:00:00+00:00,-39.21238539326387
2025-06-23 13:00:00+00:00,-39.21238539326387
2025-06-23 14:00:00+00:00,-39.21238539326387
2025-06-23 15:00:00+00:00,-39.21238539326387
2025-06-23 16:00:00+00:00,-39.21238539326387
2025-06-23 17:00:00+00:00,-39.21238539326387
2025-06-23 18:00:00+00:00,-39.21238539326387
2025-06-23 19:00:00+00:00,-39.21238539326387
2025-06-24 13:00:00+00:00,-39.21238539326387
2025-06-24 14:00:00+00:00,-39.21238539326387
2025-06-24 15:00:00+00:00,-39.21238539326387
2025-06-24 16:00:00+00:00,-39.21238539326387
2025-06-24 17:00:00+00:00,-39.21238539326387
2025-06-24 18:00:00+00:00,-39.21238539326387
2025-06-24 19:00:00+00:00,-39.21238539326387
2025-06-25 13:00:00+00:00,-39.21238539326387
2025-06-25 14:00:00+00:00,-39.21238539326387
2025-06-25 15:00:00+00:00,-39.21238539326387
2025-06-25 16:00:00+00:00,-39.21238539326387
2025-06-25 17:00:00+00:00,-39.21238539326387
2025-06-25 18:00:00+00:00,-39.21238539326387
2025-06-25 19:00:00+00:00,-39.21238539326387
2025-06-26 13:00:00+00:00,-39.21238539326387
2025-06-26 14:00:00+00:00,-39.21238539326387
2025-06-26 15:00:00+00:00,-39.21238539326387
2025-06-26 16:00:00+00:00,-39.21238539326387
2025-06-26 17:00:00+00:00,-39.21238539326387
2025-06-26 18:00:00+00:00,-39.21238539326387
2025-06-26 19:00:00+00:00,-39.21238539326387
2025-06-27 13:00:00+00:00,-39.21238539326387
2025-06-27 14:00:00+00:00,-39.21238539326387
2025-06-27 15:00:00+00:00,-39.21238539326387
2025-06-27 16:00:00+00:00,-39.21238539326387
2025-06-27 17:00:00+00:00,-39.21238539326387
2025-06-27 18:00:00+00:00,-39.21238539326387
2025-06-27 19:00:00+00:00,-39.21238539326387
2025-06-30 13:00:00+00:00,-39.21238539326387
2025-06-30 14:00:00+00:00,-39.21238539326387
2025-06-30 15:00:00+00:00,-39.21238539326387
2025-06-30 16:00:00+00:00,-39.21238539326387
2025-06-30 17:00:00+00:00,-39.21238539326387
2025-06-30 18:00:00+00:00,-39.21238539326387
2025-06-30 19:00:00+00:00,-39.21238539326387
2025-07-01 13:00:00+00:00,-39.21238539326387
2025-07-01 14:00:00+00:00,-39.21238539326387
2025-07-01 15:00:00+00:00,-39.21238539326387
2025-07-01 16:00:00+00:00,-39.21238539326387
2025-07-01 17:00:00+00:00,-39.21238539326387
2025-07-01 18:00:00+00:00,-39.21238539326387
2025-07-01 19:00:00+00:00,-39.21238539326387
2025-07-02 13:00:00+00:00,-39.21238539326387
2025-07-02 14:00:00+00:00,-39.21238539326387
2025-07-02 15:00:00+00:00,-39.21238539326387
2025-07-02 16:00:00+00:00,-39.21238539326387
2025-07-02 17:00:00+00:00,-39.21238539326387
2025-07-02 18:00:00+00:00,-39.21238539326387
2025-07-02 19:00:00+00:00,-39.21238539326387
2025-07-03 13:00:00+00:00,-39.21238539326387
2025-07-03 14:00:00+00:00,-39.21238539326387
2025-07-03 15:00:00+00:00,-39.21238539326387
2025-07-07 13:00:00+00:00,-39.21238539326387
2025-07-07 14:00:00+00:00,-39.21238539326387
2025-07-07 15:00:00+00:00,-39.21238539326387
2025-07-07 16:00:00+00:00,-39.21238539326387
2025-07-07 17:00:00+00:00,-39.21238539326387
2025-07-07 18:00:00+00:00,-39.21238539326387
2025-07-07 19:00:00+00:00,-39.21238539326387
2025-07-08 13:00:00+00:00,-39.21238539326387
2025-07-08 14:00:00+00:00,-39.21238539326387
2025-07-08 15:00:00+00:00,-39.21238539326387
2025-07-08 16:00:00+00:00,-39.21238539326387
2025-07-08 17:00:00+00:00,-39.21238539326387
2025-07-08 18:00:00+00:00,-39.21238539326387
2025-07-08 19:00:00+00:00,-39.21238539326387
2025-07-09 13:00:00+00:00,-39.21238539326387
2025-07-09 14:00:00+00:00,-39.21238539326387
2025-07-09 15:00:00+00:00,-39.21238539326387
2025-07-09 16:00:00+00:00,-39.21238539326387
2025-07-09 17:00:00+00:00,-39.21238539326387
2025-07-09 18:00:00+00:00,-39.21238539326387
2025-07-09 19:00:00+00:00,-39.21238539326387
2025-07-10 13:00:00+00:00,-39.21238539326387
2025-07-10 14:00:00+00:00,-39.21238539326387
2025-07-10 15:00:00+00:00,-39.21238539326387
2025-07-10 16:00:00+00:00,-39.21238539326387
2025-07-10 17:00:00+00:00,-39.21238539326387
2025-07-10 18:00:00+00:00,-39.21238539326387
2025-07-10 19:00:00+00:00,-39.21238539326387
2025-07-11 13:00:00+00:00,-39.21238539326387
2025-07-11 14:00:00+00:00,-39.21238539326387
2025-07-11 15:00:00+00:00,-39.21238539326387
2025-07-11 16:00:00+00:00,-39.21238539326387
2025-07-11 17:00:00+00:00,-39.21238539326387
2025-07-11 18:00:00+00:00,-39.21238539326387
2025-07-11 19:00:00+00:00,-39.21238539326387
2025-07-14 13:00:00+00:00,-39.21238539326387
2025-07-14 14:00:00+00:00,-39.21238539326387
2025-07-14 15:00:00+00:00,-39.21238539326387
2025-07-14 16:00:00+00:00,-39.21238539326387
2025-07-14 17:00:00+00:00,-39.21238539326387
2025-07-14 18:00:00+00:00,-39.21238539326387
2025-07-14 19:00:00+00:00,-39.21238539326387
2025-07-15 13:00:00+00:00,-39.21238539326387
2025-07-15 14:00:00+00:00,-39.21238539326387
2025-07-15 15:00:00+00:00,-39.21238539326387
2025-07-15 16:00:00+00:00,-39.21238539326387
2025-07-15 17:00:00+00:00,-39.21238539326387
2025-07-15 18:00:00+00:00,-39.21238539326387
2025-07-15 19:00:00+00:00,-39.21238539326387
2025-07-16 13:00:00+00:00,-39.21238539326387
2025-07-16 14:00:00+00:00,-39.21238539326387
2025-07-16 15:00:00+00:00,-39.21238539326387
2025-07-16 16:00:00+00:00,-39.21238539326387
2025-07-16 17:00:00+00:00,-39.21238539326387
2025-07-16 18:00:00+00:00,-39.21238539326387
2025-07-16 19:00:00+00:00,-39.21238539326387
2025-07-17 13:00:00+00:00,-39.21238539326387
2025-07-17 14:00:00+00:00,-39.21238539326387
2025-07-17 15:00:00+00:00,-39.21238539326387
2025-07-17 16:00:00+00:00,-39.21238539326387
2025-07-17 17:00:00+00:00,-39.21238539326387
2025-07-17 18:00:00+00:00,-39.21238539326387
2025-07-17 19:00:00+00:00,-39.21238539326387
2025-07-18 13:00:00+00:00,-39.21238539326387
2025-07-18 14:00:00+00:00,-39.21238539326387
2025-07-18 15:00:00+00:00,-39.21238539326387
2025-07-18 16:00:00+00:00,-39.21238539326387
2025-07-18 17:00:00+00:00,-39.21238539326387
2025-07-18 18:00:00+00:00,-39.21238539326387
2025-07-18 19:00:00+00:00,-39.21238539326387
2025-07-21 13:00:00+00:00,-39.21238539326387
2025-07-21 14:00:00+00:00,-39.21238539326387
2025-07-21 15:00:00+00:00,-39.21238539326387
2025-07-21 16:00:00+00:00,-39.21238539326387
2025-07-21 17:00:00+00:00,-39.21238539326387
2025-07-21 18:00:00+00:00,-39.21238539326387
2025-07-21 19:00:00+00:00,-39.21238539326387
2025-07-22 13:00:00+00:00,-39.21238539326387
2025-07-22 14:00:00+00:00,-39.21238539326387
2025-07-22 15:00:00+00:00,-39.21238539326387
2025-07-22 16:00:00+00:00,-39.21238539326387
2025-07-22 17:00:00+00:00,-39.21238539326387
2025-07-22 18:00:00+00:00,-39.21238539326387
2025-07-22 19:00:00+00:00,-39.21238539326387
2025-07-23 13:00:00+00:00,-39.21238539326387
2025-07-23 14:00:00+00:00,-39.21238539326387
2025-07-23 15:00:00+00:00,-39.21238539326387
2025-07-23 16:00:00+00:00,-39.21238539326387
2025-07-23 17:00:00+00:00,-39.21238539326387
2025-07-23 18:00:00+00:00,-39.21238539326387
2025-07-23 19:00:00+00:00,-39.21238539326387
2025-07-24 13:00:00+00:00,-39.21238539326387
2025-07-24 14:00:00+00:00,-39.21238539326387
2025-07-24 15:00:00+00:00,-39.21238539326387
2025-07-24 16:00:00+00:00,-39.21238539326387
2025-07-24 17:00:00+00:00,-39.21238539326387
2025-07-24 18:00:00+00:00,-39.21238539326387
2025-07-24 19:00:00+00:00,-39.21238539326387
2025-07-25 13:00:00+00:00,-39.21238539326387
2025-07-25 14:00:00+00:00,-39.21238539326387
2025-07-25 15:00:00+00:00,-39.21238539326387
2025-07-25 16:00:00+00:00,-39.21238539326387
2025-07-25 17:00:00+00:00,-39.21238539326387
2025-07-25 18:00:00+00:00,-39.21238539326387
2025-07-25 19:00:00+00:00,-39.21238539326387
2025-07-28 13:00:00+00:00,-39.21238539326387
2025-07-28 14:00:00+00:00,-39.21238539326387
2025-07-28 15:00:00+00:00,-39.21238539326387
2025-07-28 16:00:00+00:00,-39.21238539326387
2025-07-28 17:00:00+00:00,-39.21238539326387
2025-07-28 18:00:00+00:00,-39.21238539326387
2025-07-28 19:00:00+00:00,-39.21238539326387
2025-07-29 13:00:00+00:00,-39.21238539326387
2025-07-29 14:00:00+00:00,-39.21238539326387
2025-07-29 15:00:00+00:00,-39.21238539326387
2025-07-29 16:00:00+00:00,-39.21238539326387
2025-07-29 17:00:00+00:00,-39.21238539326387
2025-07-29 18:00:00+00:00,-39.21238539326387
2025-07-29 19:00:00+00:00,-39.21238539326387
2025-07-30 13:00:00+00:00,-39.21238539326387
2025-07-30 14:00:00+00:00,-39.21238539326387
2025-07-30 15:00:00+00:00,-39.21238539326387
2025-07-30 16:00:00+00:00,-39.21238539326387
2025-07-30 17:00:00+00:00,-39.21238539326387
2025-07-30 18:00:00+00:00,-39.21238539326387
2025-07-30 19:00:00+00:00,-39.21238539326387
2025-07-31 13:00:00+00:00,-39.21238539326387
2025-07-31 14:00:00+00:00,-39.21238539326387
2025-07-31 15:00:00+00:00,-39.21238539326387
2025-07-31 16:00:00+00:00,-39.21238539326387
2025-07-31 17:00:00+00:00,-39.21238539326387
2025-07-31 18:00:00+00:00,-39.21238539326387
2025-07-31 19:00:00+00:00,-39.21238539326387
2025-08-01 13:00:00+00:00,-39.21238539326387
2025-08-01 14:00:00+00:00,-39.21238539326387
2025-08-01 15:00:00+00:00,-39.21238539326387
2025-08-01 16:00:00+00:00,-39.21238539326387
2025-08-01 17:00:00+00:00,-39.21238539326387
2025-08-01 18:00:00+00:00,-39.21238539326387
2025-08-01 19:00:00+00:00,-39.21238539326387
2025-08-04 13:00:00+00:00,-39.21238539326387
2025-08-04 14:00:00+00:00,-39.21238539326387
2025-08-04 15:00:00+00:00,-39.21238539326387
2025-08-04 16:00:00+00:00,-39.21238539326387
2025-08-04 17:00:00+00:00,-39.21238539326387
2025-08-04 18:00:00+00:00,-39.21238539326387
2025-08-04 19:00:00+00:00,-39.21238539326387
2025-08-05 13:00:00+00:00,-39.21238539326387
2025-08-05 14:00:00+00:00,-39.21238539326387
2025-08-05 15:00:00+00:00,-39.21238539326387
2025-08-05 16:00:00+00:00,-39.21238539326387
2025-08-05 17:00:00+00:00,-39.21238539326387
2025-08-05 18:00:00+00:00,-39.21238539326387
2025-08-05 19:00:00+00:00,-39.21238539326387
2025-08-06 13:00:00+00:00,-39.21238539326387
2025-08-06 14:00:00+00:00,-39.21238539326387
2025-08-06 15:00:00+00:00,-39.21238539326387
2025-08-06 16:00:00+00:00,-39.21238539326387
2025-08-06 17:00:00+00:00,-39.21238539326387
2025-08-06 18:00:00+00:00,-39.21238539326387
2025-08-06 19:00:00+00:00,-39.21238539326387
2025-08-07 13:00:00+00:00,-39.21238539326387
2025-08-07 14:00:00+00:00,-39.21238539326387
2025-08-07 15:00:00+00:00,-39.21238539326387
2025-08-07 16:00:00+00:00,-39.21238539326387
2025-08-07 17:00:00+00:00,-39.21238539326387
2025-08-07 18:00:00+00:00,-39.21238539326387
2025-08-07 19:00:00+00:00,-39.21238539326387
2025-08-08 13:00:00+00:00,-39.21238539326387
2025-08-08 14:00:00+00:00,-39.21238539326387
2025-08-08 15:00:00+00:00,-39.21238539326387
2025-08-08 16:00:00+00:00,-39.21238539326387
2025-08-08 17:00:00+00:00,-39.21238539326387
2025-08-08 18:00:00+00:00,-39.21238539326387
2025-08-08 19:00:00+00:00,-39.21238539326387
2025-08-11 13:00:00+00:00,-39.21238539326387
2025-08-11 14:00:00+00:00,-39.21238539326387
2025-08-11 15:00:00+00:00,-39.21238539326387
2025-08-11 16:00:00+00:00,-39.21238539326387
2025-08-11 17:00:00+00:00,-39.21238539326387
2025-08-11 18:00:00+00:00,-39.21238539326387
2025-08-11 19:00:00+00:00,-39.21238539326387
2025-08-12 13:00:00+00:00,-39.21238539326387
2025-08-12 14:00:00+00:00,-39.21238539326387
2025-08-12 15:00:00+00:00,-39.21238539326387
2025-08-12 16:00:00+00:00,-39.21238539326387
2025-08-12 17:00:00+00:00,-39.21238539326387
2025-08-12 18:00:00+00:00,-39.21238539326387
2025-08-12 19:00:00+00:00,-39.21238539326387
2025-08-13 13:00:00+00:00,-39.21238539326387
2025-08-13 14:00:00+00:00,-39.21238539326387
2025-08-13 15:00:00+00:00,-39.21238539326387
2025-08-13 16:00:00+00:00,-39.21238539326387
2025-08-13 17:00:00+00:00,-39.21238539326387
2025-08-13 18:00:00+00:00,-39.21238539326387
2025-08-13 19:00:00+00:00,-39.21238539326387
2025-08-14 13:00:00+00:00,-39.21238539326387
2025-08-14 14:00:00+00:00,-39.21238539326387
2025-08-14 15:00:00+00:00,-39.21238539326387
2025-08-14 16:00:00+00:00,-39.21238539326387
2025-08-14 17:00:00+00:00,-39.21238539326387
2025-08-14 18:00:00+00:00,-39.21238539326387
2025-08-14 19:00:00+00:00,-39.21238539326387
2025-08-15 13:00:00+00:00,-39.21238539326387
2025-08-15 14:00:00+00:00,-39.21238539326387
2025-08-15 15:00:00+00:00,-39.21238539326387
2025-08-15 16:00:00+00:00,-39.21238539326387
2025-08-15 17:00:00+00:00,-39.21238539326387
2025-08-15 18:00:00+00:00,-39.21238539326387
2025-08-15 19:00:00+00:00,-39.21238539326387
2025-08-18 13:00:00+00:00,-39.21238539326387
2025-08-18 14:00:00+00:00,-39.21238539326387
2025-08-18 15:00:00+00:00,-39.21238539326387
2025-08-18 16:00:00+00:00,-39.21238539326387
2025-08-18 17:00:00+00:00,-39.21238539326387
2025-08-18 18:00:00+00:00,-39.21238539326387
2025-08-18 19:00:00+00:00,-39.21238539326387
2025-08-19 13:00:00+00:00,-39.21238539326387
2025-08-19 14:00:00+00:00,-39.21238539326387
2025-08-19 15:00:00+00:00,-39.21238539326387
2025-08-19 16:00:00+00:00,-39.21238539326387
2025-08-19 17:00:00+00:00,-39.21238539326387
2025-08-19 18:00:00+00:00,-39.21238539326387
2025-08-19 19:00:00+00:00,-39.21238539326387
2025-08-20 13:00:00+00:00,-39.21238539326387
2025-08-20 14:00:00+00:00,-39.21238539326387
2025-08-20 15:00:00+00:00,-39.21238539326387
2025-08-20 16:00:00+00:00,-39.21238539326387
2025-08-20 17:00:00+00:00,-39.21238539326387
2025-08-20 18:00:00+00:00,-39.21238539326387
2025-08-20 19:00:00+00:00,-39.21238539326387
2025-08-21 13:00:00+00:00,-39.21238539326387
2025-08-21 14:00:00+00:00,-39.21238539326387
2025-08-21 15:00:00+00:00,-39.21238539326387
2025-08-21 16:00:00+00:00,-39.21238539326387
2025-08-21 17:00:00+00:00,-39.21238539326387
2025-08-21 18:00:00+00:00,-39.21238539326387
2025-08-21 19:00:00+00:00,-39.21238539326387
2025-08-22 13:00:00+00:00,-39.21238539326387
2025-08-22 14:00:00+00:00,-39.21238539326387
2025-08-22 15:00:00+00:00,-39.21238539326387
2025-08-22 16:00:00+00:00,-39.21238539326387
2025-08-22 17:00:00+00:00,-39.21238539326387
2025-08-22 18:00:00+00:00,-39.21238539326387
2025-08-22 19:00:00+00:00,-39.21238539326387
2025-08-25 13:00:00+00:00,-39.21238539326387
2025-08-25 14:00:00+00:00,-39.21238539326387
2025-08-25 15:00:00+00:00,-39.21238539326387
2025-08-25 16:00:00+00:00,-39.21238539326387
2025-08-25 17:00:00+00:00,-39.21238539326387
2025-08-25 18:00:00+00:00,-39.21238539326387
2025-08-25 19:00:00+00:00,-39.21238539326387
2025-08-26 13:00:00+00:00,-39.21238539326387
2025-08-26 14:00:00+00:00,-39.21238539326387
2025-08-26 15:00:00+00:00,-39.21238539326387
2025-08-26 16:00:00+00:00,-39.21238539326387
2025-08-26 17:00:00+00:00,-39.21238539326387
2025-08-26 18:00:00+00:00,-39.21238539326387
2025-08-26 19:00:00+00:00,-39.21238539326387
2025-08-27 13:00:00+00:00,-39.21238539326387
2025-08-27 14:00:00+00:00,-39.21238539326387
2025-08-27 15:00:00+00:00,-39.21238539326387
2025-08-27 16:00:00+00:00,-39.21238539326387
2025-08-27 17:00:00+00:00,-39.21238539326387
2025-08-27 18:00:00+00:00,-39.21238539326387
2025-08-27 19:00:00+00:00,-39.21238539326387
2025-08-28 13:00:00+00:00,-39.21238539326387
2025-08-28 14:00:00+00:00,-39.21238539326387
2025-08-28 15:00:00+00:00,-39.21238539326387
2025-08-28 16:00:00+00:00,-39.21238539326387
2025-08-28 17:00:00+00:00,-39.21238539326387
2025-08-28 18:00:00+00:00,-39.21238539326387
2025-08-28 19:00:00+00:00,-39.21238539326387
2025-08-29 13:00:00+00:00,-39.21238539326387
2025-08-29 14:00:00+00:00,-39.21238539326387
2025-08-29 15:00:00+00:00,-39.21238539326387
2025-08-29 16:00:00+00:00,-39.21238539326387
2025-08-29 17:00:00+00:00,-39.21238539326387
2025-08-29 18:00:00+00:00,-39.21238539326387
2025-08-29 19:00:00+00:00,-39.21238539326387
2025-09-02 13:00:00+00:00,-39.21238539326387
2025-09-02 14:00:00+00:00,-39.21238539326387
2025-09-02 15:00:00+00:00,-39.21238539326387
2025-09-02 16:00:00+00:00,-39.21238539326387
2025-09-02 17:00:00+00:00,-39.21238539326387
2025-09-02 18:00:00+00:00,-39.21238539326387
2025-09-02 19:00:00+00:00,-39.21238539326387
2025-09-03 13:00:00+00:00,-39.21238539326387
2025-09-03 14:00:00+00:00,-39.21238539326387
2025-09-03 15:00:00+00:00,-39.21238539326387
2025-09-03 16:00:00+00:00,-39.21238539326387
2025-09-03 17:00:00+00:00,-39.21238539326387
2025-09-03 18:00:00+00:00,-39.21238539326387
2025-09-03 19:00:00+00:00,-39.21238539326387
2025-09-04 13:00:00+00:00,-39.21238539326387
2025-09-04 14:00:00+00:00,-39.21238539326387
2025-09-04 15:00:00+00:00,-39.21238539326387
2025-09-04 16:00:00+00:00,-39.21238539326387
2025-09-04 17:00:00+00:00,-39.21238539326387
2025-09-04 18:00:00+00:00,-39.21238539326387
2025-09-04 19:00:00+00:00,-39.21238539326387
2025-09-05 13:00:00+00:00,-39.21238539326387
2025-09-05 14:00:00+00:00,-39.21238539326387
2025-09-05 15:00:00+00:00,-39.21238539326387
2025-09-05 16:00:00+00:00,-39.21238539326387
2025-09-05 17:00:00+00:00,-39.21238539326387
2025-09-05 18:00:00+00:00,-39.21238539326387
2025-09-05 19:00:00+00:00,-39.21238539326387
2025-09-08 13:00:00+00:00,-39.21238539326387
2025-09-08 14:00:00+00:00,-39.21238539326387
2025-09-08 15:00:00+00:00,-39.21238539326387
2025-09-08 16:00:00+00:00,-39.21238539326387
2025-09-08 17:00:00+00:00,-39.21238539326387
2025-09-08 18:00:00+00:00,-39.21238539326387
2025-09-08 19:00:00+00:00,-39.21238539326387
2025-09-09 13:00:00+00:00,-39.21238539326387
2025-09-09 14:00:00+00:00,-39.21238539326387
2025-09-09 15:00:00+00:00,-39.21238539326387
2025-09-09 16:00:00+00:00,-39.21238539326387
2025-09-09 17:00:00+00:00,-39.21238539326387
2025-09-09 18:00:00+00:00,-39.21238539326387
2025-09-09 19:00:00+00:00,-39.21238539326387
2025-09-10 13:00:00+00:00,-39.21238539326387
2025-09-10 14:00:00+00:00,-39.21238539326387
2025-09-10 15:00:00+00:00,-39.21238539326387
2025-09-10 16:00:00+00:00,-39.21238539326387
2025-09-10 17:00:00+00:00,-39.21238539326387
2025-09-10 18:00:00+00:00,-39.21238539326387
2025-09-10 19:00:00+00:00,-39.21238539326387
2025-09-11 13:00:00+00:00,-39.21238539326387
2025-09-11 14:00:00+00:00,-39.21238539326387
2025-09-11 15:00:00+00:00,-39.21238539326387
2025-09-11 16:00:00+00:00,-39.21238539326387
2025-09-11 17:00:00+00:00,-39.21238539326387
2025-09-11 18:00:00+00:00,-39.21238539326387
2025-09-11 19:00:00+00:00,-39.21238539326387
2025-09-12 13:00:00+00:00,-39.21238539326387
2025-09-12 14:00:00+00:00,-39.21238539326387
2025-09-12 15:00:00+00:00,-39.21238539326387
2025-09-12 16:00:00+00:00,-39.21238539326387
2025-09-12 17:00:00+00:00,-39.21238539326387
2025-09-12 18:00:00+00:00,-39.21238539326387
2025-09-12 19:00:00+00:00,-39.21238539326387
2025-09-15 13:00:00+00:00,-39.21238539326387
2025-09-15 14:00:00+00:00,-39.21238539326387
2025-09-15 15:00:00+00:00,-39.21238539326387
2025-09-15 16:00:00+00:00,-39.21238539326387
2025-09-15 17:00:00+00:00,-39.21238539326387
2025-09-15 18:00:00+00:00,-39.21238539326387
2025-09-15 19:00:00+00:00,-39.21238539326387
2025-09-16 13:00:00+00:00,-39.21238539326387
2025-09-16 14:00:00+00:00,-39.21238539326387
2025-09-16 15:00:00+00:00,-39.21238539326387
2025-09-16 16:00:00+00:00,-39.21238539326387
2025-09-16 17:00:00+00:00,-39.21238539326387
2025-09-16 18:00:00+00:00,-39.21238539326387
2025-09-16 19:00:00+00:00,-39.21238539326387
2025-09-17 13:00:00+00:00,-39.21238539326387
2025-09-17 14:00:00+00:00,-39.21238539326387
2025-09-17 15:00:00+00:00,-39.21238539326387
2025-09-17 16:00:00+00:00,-39.21238539326387
2025-09-17 17:00:00+00:00,-39.21238539326387
2025-09-17 18:00:00+00:00,-39.21238539326387
2025-09-17 19:00:00+00:00,-39.21238539326387
2025-09-18 13:00:00+00:00,-39.21238539326387
2025-09-18 14:00:00+00:00,-39.21238539326387
2025-09-18 15:00:00+00:00,-39.21238539326387
2025-09-18 16:00:00+00:00,-39.21238539326387
2025-09-18 17:00:00+00:00,-39.21238539326387
2025-09-18 18:00:00+00:00,-39.21238539326387
2025-09-18 19:00:00+00:00,-39.21238539326387
2025-09-19 13:00:00+00:00,-39.21238539326387
2025-09-19 14:00:00+00:00,-39.21238539326387
2025-09-19 15:00:00+00:00,-39.21238539326387
2025-09-19 16:00:00+00:00,-39.21238539326387
2025-09-19 17:00:00+00:00,-39.21238539326387
2025-09-19 18:00:00+00:00,-39.21238539326387
2025-09-19 19:00:00+00:00,-39.21238539326387
2025-09-22 13:00:00+00:00,-39.21238539326387
2025-09-22 14:00:00+00:00,-39.21238539326387
2025-09-22 15:00:00+00:00,-39.21238539326387
2025-09-22 16:00:00+00:00,-39.21238539326387
2025-09-22 17:00:00+00:00,-39.21238539326387
2025-09-22 18:00:00+00:00,-39.21238539326387
2025-09-22 19:00:00+00:00,-39.21238539326387
2025-09-23 13:00:00+00:00,-39.21238539326387
2025-09-23 14:00:00+00:00,-39.21238539326387
2025-09-23 15:00:00+00:00,-39.21238539326387
2025-09-23 16:00:00+00:00,-39.21238539326387
2025-09-23 17:00:00+00:00,-39.21238539326387
2025-09-23 18:00:00+00:00,-39.21238539326387
2025-09-23 19:00:00+00:00,-39.21238539326387
2025-09-24 13:00:00+00:00,-39.21238539326387
2025-09-24 14:00:00+00:00,-39.21238539326387
2025-09-24 15:00:00+00:00,-39.21238539326387
2025-09-24 16:00:00+00:00,-39.21238539326387
2025-09-24 17:00:00+00:00,-39.21238539326387
2025-09-24 18:00:00+00:00,-39.21238539326387
2025-09-24 19:00:00+00:00,-39.21238539326387
2025-09-25 13:00:00+00:00,-39.21238539326387
2025-09-25 14:00:00+00:00,-39.21238539326387
2025-09-25 15:00:00+00:00,-39.21238539326387
2025-09-25 16:00:00+00:00,-39.21238539326387
2025-09-25 17:00:00+00:00,-39.21238539326387
2025-09-25 18:00:00+00:00,-39.21238539326387
2025-09-25 19:00:00+00:00,-39.21238539326387
2025-09-26 13:00:00+00:00,-39.21238539326387
2025-09-26 14:00:00+00:00,-39.21238539326387
2025-09-26 15:00:00+00:00,-39.21238539326387
2025-09-26 16:00:00+00:00,-39.21238539326387
2025-09-26 17:00:00+00:00,-39.21238539326387
2025-09-26 18:00:00+00:00,-39.21238539326387
2025-09-26 19:00:00+00:00,-39.21238539326387
2025-09-29 13:00:00+00:00,-39.21238539326387
2025-09-29 14:00:00+00:00,-39.21238539326387
2025-09-29 15:00:00+00:00,-39.21238539326387
2025-09-29 16:00:00+00:00,-39.21238539326387
2025-09-29 17:00:00+00:00,-39.21238539326387
2025-09-29 18:00:00+00:00,-39.21238539326387
2025-09-29 19:00:00+00:00,-39.21238539326387
2025-09-30 13:00:00+00:00,-39.21238539326387
2025-09-30 14:00:00+00:00,-39.21238539326387
2025-09-30 15:00:00+00:00,-39.21238539326387
2025-09-30 16:00:00+00:00,-39.21238539326387
2025-09-30 17:00:00+00:00,-39.21238539326387
2025-09-30 18:00:00+00:00,-39.21238539326387
2025-09-30 19:00:00+00:00,-39.21238539326387
2025-10-01 13:00:00+00:00,-39.21238539326387
2025-10-01 14:00:00+00:00,-39.21238539326387
2025-10-01 15:00:00+00:00,-39.21238539326387
2025-10-01 16:00:00+00:00,-39.21238539326387
2025-10-01 17:00:00+00:00,-39.21238539326387
2025-10-01 18:00:00+00:00,-39.21238539326387
2025-10-01 19:00:00+00:00,-39.21238539326387
2025-10-02 13:00:00+00:00,-39.21238539326387
2025-10-02 14:00:00+00:00,-39.21238539326387
2025-10-02 15:00:00+00:00,-39.21238539326387
2025-10-02 16:00:00+00:00,-39.21238539326387
2025-10-02 17:00:00+00:00,-39.21238539326387
2025-10-02 18:00:00+00:00,-39.21238539326387
2025-10-02 19:00:00+00:00,-39.21238539326387
2025-10-03 13:00:00+00:00,-39.21238539326387
2025-10-03 14:00:00+00:00,-39.21238539326387
2025-10-03 15:00:00+00:00,-39.21238539326387
2025-10-03 16:00:00+00:00,-39.21238539326387
2025-10-03 17:00:00+00:00,-39.21238539326387
2025-10-03 18:00:00+00:00,-39.21238539326387
2025-10-03 19:00:00+00:00,-39.21238539326387
2025-10-06 13:00:00+00:00,-39.21238539326387
2025-10-06 14:00:00+00:00,-39.21238539326387
2025-10-06 15:00:00+00:00,-39.21238539326387
2025-10-06 16:00:00+00:00,-39.21238539326387
2025-10-06 17:00:00+00:00,-39.21238539326387
2025-10-06 18:00:00+00:00,-39.21238539326387
2025-10-06 19:00:00+00:00,-39.21238539326387
2025-10-07 13:00:00+00:00,-39.21238539326387
2025-10-07 14:00:00+00:00,-39.21238539326387
2025-10-07 15:00:00+00:00,-39.21238539326387
2025-10-07 16:00:00+00:00,-39.21238539326387
2025-10-07 17:00:00+00:00,-39.21238539326387
2025-10-07 18:00:00+00:00,-39.21238539326387
2025-10-07 19:00:00+00:00,-39.21238539326387
2025-10-08 13:00:00+00:00,-39.21238539326387
2025-10-08 14:00:00+00:00,-39.21238539326387
2025-10-08 15:00:00+00:00,-39.21238539326387
2025-10-08 16:00:00+00:00,-39.21238539326387
2025-10-08 17:00:00+00:00,-39.21238539326387
2025-10-08 18:00:00+00:00,-39.21238539326387
2025-10-08 19:00:00+00:00,-39.21238539326387
2025-10-09 13:00:00+00:00,-39.21238539326387
2025-10-09 14:00:00+00:00,-39.21238539326387
2025-10-09 15:00:00+00:00,-39.21238539326387
2025-10-09 16:00:00+00:00,-39.21238539326387
2025-10-09 17:00:00+00:00,-39.21238539326387
2025-10-09 18:00:00+00:00,-39.21238539326387
