Date,0
2024-01-02 14:00:00+00:00,0.0
2024-01-02 15:00:00+00:00,0.0
2024-01-02 16:00:00+00:00,0.0
2024-01-02 17:00:00+00:00,0.0
2024-01-02 18:00:00+00:00,0.0
2024-01-02 19:00:00+00:00,0.0
2024-01-02 20:00:00+00:00,0.0
2024-01-03 14:00:00+00:00,0.0
2024-01-03 15:00:00+00:00,0.0
2024-01-03 16:00:00+00:00,0.0
2024-01-03 17:00:00+00:00,0.0
2024-01-03 18:00:00+00:00,0.0
2024-01-03 19:00:00+00:00,0.0
2024-01-03 20:00:00+00:00,0.0
2024-01-04 14:00:00+00:00,0.0
2024-01-04 15:00:00+00:00,0.0
2024-01-04 16:00:00+00:00,0.0
2024-01-04 17:00:00+00:00,0.0
2024-01-04 18:00:00+00:00,0.0
2024-01-04 19:00:00+00:00,0.0
2024-01-04 20:00:00+00:00,0.0
2024-01-05 14:00:00+00:00,0.0
2024-01-05 15:00:00+00:00,0.0
2024-01-05 16:00:00+00:00,0.0
2024-01-05 17:00:00+00:00,0.0
2024-01-05 18:00:00+00:00,0.0
2024-01-05 19:00:00+00:00,0.0
2024-01-05 20:00:00+00:00,0.0
2024-01-08 14:00:00+00:00,0.0
2024-01-08 15:00:00+00:00,0.0
2024-01-08 16:00:00+00:00,0.0
2024-01-08 17:00:00+00:00,0.0
2024-01-08 18:00:00+00:00,0.0
2024-01-08 19:00:00+00:00,0.0
2024-01-08 20:00:00+00:00,0.0
2024-01-09 14:00:00+00:00,0.0
2024-01-09 15:00:00+00:00,0.0
2024-01-09 16:00:00+00:00,0.0
2024-01-09 17:00:00+00:00,0.0
2024-01-09 18:00:00+00:00,0.0
2024-01-09 19:00:00+00:00,0.0
2024-01-09 20:00:00+00:00,0.0
2024-01-10 14:00:00+00:00,0.0
2024-01-10 15:00:00+00:00,0.0
2024-01-10 16:00:00+00:00,0.0
2024-01-10 17:00:00+00:00,0.0
2024-01-10 18:00:00+00:00,0.0
2024-01-10 19:00:00+00:00,0.0
2024-01-10 20:00:00+00:00,0.0
2024-01-11 14:00:00+00:00,0.0
2024-01-11 15:00:00+00:00,0.0
2024-01-11 16:00:00+00:00,0.0
2024-01-11 17:00:00+00:00,0.0
2024-01-11 18:00:00+00:00,0.0
2024-01-11 19:00:00+00:00,0.0
2024-01-11 20:00:00+00:00,0.0
2024-01-12 14:00:00+00:00,0.0
2024-01-12 15:00:00+00:00,0.0
2024-01-12 16:00:00+00:00,0.0
2024-01-12 17:00:00+00:00,0.0
2024-01-12 18:00:00+00:00,0.0
2024-01-12 19:00:00+00:00,0.0
2024-01-12 20:00:00+00:00,0.0
2024-01-16 14:00:00+00:00,0.0
2024-01-16 15:00:00+00:00,0.0
2024-01-16 16:00:00+00:00,0.0
2024-01-16 17:00:00+00:00,0.0
2024-01-16 18:00:00+00:00,0.0
2024-01-16 19:00:00+00:00,0.0
2024-01-16 20:00:00+00:00,0.0
2024-01-17 14:00:00+00:00,0.0
2024-01-17 15:00:00+00:00,0.0
2024-01-17 16:00:00+00:00,0.0
2024-01-17 17:00:00+00:00,0.0
2024-01-17 18:00:00+00:00,0.0
2024-01-17 19:00:00+00:00,0.0
2024-01-17 20:00:00+00:00,0.0
2024-01-18 14:00:00+00:00,0.0
2024-01-18 15:00:00+00:00,0.0
2024-01-18 16:00:00+00:00,0.0
2024-01-18 17:00:00+00:00,0.0
2024-01-18 18:00:00+00:00,0.0
2024-01-18 19:00:00+00:00,0.0
2024-01-18 20:00:00+00:00,0.0
2024-01-19 14:00:00+00:00,0.0
2024-01-19 15:00:00+00:00,0.0
2024-01-19 16:00:00+00:00,0.0
2024-01-19 17:00:00+00:00,0.0
2024-01-19 18:00:00+00:00,0.0
2024-01-19 19:00:00+00:00,0.0
2024-01-19 20:00:00+00:00,0.0
2024-01-22 14:00:00+00:00,0.0
2024-01-22 15:00:00+00:00,0.0
2024-01-22 16:00:00+00:00,0.0
2024-01-22 17:00:00+00:00,0.0
2024-01-22 18:00:00+00:00,0.0
2024-01-22 19:00:00+00:00,0.0
2024-01-22 20:00:00+00:00,0.0
2024-01-23 14:00:00+00:00,0.0
2024-01-23 15:00:00+00:00,0.0
2024-01-23 16:00:00+00:00,0.0
2024-01-23 17:00:00+00:00,0.0
2024-01-23 18:00:00+00:00,0.0
2024-01-23 19:00:00+00:00,0.0
2024-01-23 20:00:00+00:00,0.0
2024-01-24 14:00:00+00:00,0.0
2024-01-24 15:00:00+00:00,0.0
2024-01-24 16:00:00+00:00,0.0
2024-01-24 17:00:00+00:00,0.0
2024-01-24 18:00:00+00:00,0.0
2024-01-24 19:00:00+00:00,0.0
2024-01-24 20:00:00+00:00,0.0
2024-01-25 14:00:00+00:00,0.0
2024-01-25 15:00:00+00:00,0.0
2024-01-25 16:00:00+00:00,0.0
2024-01-25 17:00:00+00:00,0.0
2024-01-25 18:00:00+00:00,0.0
2024-01-25 19:00:00+00:00,0.0
2024-01-25 20:00:00+00:00,0.0
2024-01-26 14:00:00+00:00,0.0
2024-01-26 15:00:00+00:00,0.0
2024-01-26 16:00:00+00:00,0.0
2024-01-26 17:00:00+00:00,0.0
2024-01-26 18:00:00+00:00,0.0
2024-01-26 19:00:00+00:00,0.0
2024-01-26 20:00:00+00:00,0.0
2024-01-29 14:00:00+00:00,0.0
2024-01-29 15:00:00+00:00,0.0
2024-01-29 16:00:00+00:00,0.0
2024-01-29 17:00:00+00:00,0.0
2024-01-29 18:00:00+00:00,0.0
2024-01-29 19:00:00+00:00,0.0
2024-01-29 20:00:00+00:00,0.0
2024-01-30 14:00:00+00:00,0.0
2024-01-30 15:00:00+00:00,0.0
2024-01-30 16:00:00+00:00,0.0
2024-01-30 17:00:00+00:00,0.0
2024-01-30 18:00:00+00:00,0.0
2024-01-30 19:00:00+00:00,0.0
2024-01-30 20:00:00+00:00,0.0
2024-01-31 14:00:00+00:00,0.0
2024-01-31 15:00:00+00:00,0.0
2024-01-31 16:00:00+00:00,0.0
2024-01-31 17:00:00+00:00,0.0
2024-01-31 18:00:00+00:00,0.0
2024-01-31 19:00:00+00:00,0.0
2024-01-31 20:00:00+00:00,0.0
2024-02-01 14:00:00+00:00,0.0
2024-02-01 15:00:00+00:00,0.0
2024-02-01 16:00:00+00:00,0.0
2024-02-01 17:00:00+00:00,0.0
2024-02-01 18:00:00+00:00,0.0
2024-02-01 19:00:00+00:00,0.0
2024-02-01 20:00:00+00:00,0.0
2024-02-02 14:00:00+00:00,0.0
2024-02-02 15:00:00+00:00,0.0
2024-02-02 16:00:00+00:00,0.0
2024-02-02 17:00:00+00:00,0.0
2024-02-02 18:00:00+00:00,0.0
2024-02-02 19:00:00+00:00,0.0
2024-02-02 20:00:00+00:00,0.0
2024-02-05 14:00:00+00:00,0.0
2024-02-05 15:00:00+00:00,0.0
2024-02-05 16:00:00+00:00,0.0
2024-02-05 17:00:00+00:00,0.0
2024-02-05 18:00:00+00:00,0.0
2024-02-05 19:00:00+00:00,0.0
2024-02-05 20:00:00+00:00,0.0
2024-02-06 14:00:00+00:00,0.0
2024-02-06 15:00:00+00:00,0.0
2024-02-06 16:00:00+00:00,0.0
2024-02-06 17:00:00+00:00,0.0
2024-02-06 18:00:00+00:00,0.0
2024-02-06 19:00:00+00:00,0.0
2024-02-06 20:00:00+00:00,0.0
2024-02-07 14:00:00+00:00,0.0
2024-02-07 15:00:00+00:00,0.0
2024-02-07 16:00:00+00:00,0.0
2024-02-07 17:00:00+00:00,0.0
2024-02-07 18:00:00+00:00,0.0
2024-02-07 19:00:00+00:00,0.0
2024-02-07 20:00:00+00:00,0.0
2024-02-08 14:00:00+00:00,0.0
2024-02-08 15:00:00+00:00,0.0
2024-02-08 16:00:00+00:00,0.0
2024-02-08 17:00:00+00:00,0.0
2024-02-08 18:00:00+00:00,0.0
2024-02-08 19:00:00+00:00,0.0
2024-02-08 20:00:00+00:00,0.0
2024-02-09 14:00:00+00:00,0.0
2024-02-09 15:00:00+00:00,0.0
2024-02-09 16:00:00+00:00,0.0
2024-02-09 17:00:00+00:00,0.0
2024-02-09 18:00:00+00:00,0.0
2024-02-09 19:00:00+00:00,0.0
2024-02-09 20:00:00+00:00,0.0
2024-02-12 14:00:00+00:00,0.0
2024-02-12 15:00:00+00:00,0.0
2024-02-12 16:00:00+00:00,0.0
2024-02-12 17:00:00+00:00,0.0
2024-02-12 18:00:00+00:00,0.0
2024-02-12 19:00:00+00:00,0.0
2024-02-12 20:00:00+00:00,0.0
2024-02-13 14:00:00+00:00,0.0
2024-02-13 15:00:00+00:00,0.0
2024-02-13 16:00:00+00:00,0.0
2024-02-13 17:00:00+00:00,0.0
2024-02-13 18:00:00+00:00,0.0
2024-02-13 19:00:00+00:00,0.0
2024-02-13 20:00:00+00:00,0.0
2024-02-14 14:00:00+00:00,0.0
2024-02-14 15:00:00+00:00,0.0
2024-02-14 16:00:00+00:00,0.0
2024-02-14 17:00:00+00:00,0.0
2024-02-14 18:00:00+00:00,0.0
2024-02-14 19:00:00+00:00,0.0
2024-02-14 20:00:00+00:00,0.0
2024-02-15 14:00:00+00:00,0.0
2024-02-15 15:00:00+00:00,0.0
2024-02-15 16:00:00+00:00,0.0
2024-02-15 17:00:00+00:00,0.0
2024-02-15 18:00:00+00:00,0.0
2024-02-15 19:00:00+00:00,0.0
2024-02-15 20:00:00+00:00,0.0
2024-02-16 14:00:00+00:00,0.0
2024-02-16 15:00:00+00:00,0.0
2024-02-16 16:00:00+00:00,0.0
2024-02-16 17:00:00+00:00,0.0
2024-02-16 18:00:00+00:00,0.0
2024-02-16 19:00:00+00:00,0.0
2024-02-16 20:00:00+00:00,0.0
2024-02-20 14:00:00+00:00,0.0
2024-02-20 15:00:00+00:00,0.0
2024-02-20 16:00:00+00:00,0.0
2024-02-20 17:00:00+00:00,0.0
2024-02-20 18:00:00+00:00,0.0
2024-02-20 19:00:00+00:00,0.0
2024-02-20 20:00:00+00:00,0.0
2024-02-21 14:00:00+00:00,0.0
2024-02-21 15:00:00+00:00,0.0
2024-02-21 16:00:00+00:00,0.0
2024-02-21 17:00:00+00:00,0.0
2024-02-21 18:00:00+00:00,0.0
2024-02-21 19:00:00+00:00,0.0
2024-02-21 20:00:00+00:00,0.0
2024-02-22 14:00:00+00:00,0.0
2024-02-22 15:00:00+00:00,0.0
2024-02-22 16:00:00+00:00,0.0
2024-02-22 17:00:00+00:00,0.0
2024-02-22 18:00:00+00:00,0.0
2024-02-22 19:00:00+00:00,0.0
2024-02-22 20:00:00+00:00,0.0
2024-02-23 14:00:00+00:00,0.0
2024-02-23 15:00:00+00:00,0.0
2024-02-23 16:00:00+00:00,0.0
2024-02-23 17:00:00+00:00,0.0
2024-02-23 18:00:00+00:00,0.0
2024-02-23 19:00:00+00:00,0.0
2024-02-23 20:00:00+00:00,0.0
2024-02-26 14:00:00+00:00,0.0
2024-02-26 15:00:00+00:00,0.0
2024-02-26 16:00:00+00:00,0.0
2024-02-26 17:00:00+00:00,0.0
2024-02-26 18:00:00+00:00,0.0
2024-02-26 19:00:00+00:00,0.0
2024-02-26 20:00:00+00:00,0.0
2024-02-27 14:00:00+00:00,0.0
2024-02-27 15:00:00+00:00,0.0
2024-02-27 16:00:00+00:00,0.0
2024-02-27 17:00:00+00:00,0.0
2024-02-27 18:00:00+00:00,0.0
2024-02-27 19:00:00+00:00,0.0
2024-02-27 20:00:00+00:00,0.0
2024-02-28 14:00:00+00:00,0.0
2024-02-28 15:00:00+00:00,0.0
2024-02-28 16:00:00+00:00,0.0
2024-02-28 17:00:00+00:00,0.0
2024-02-28 18:00:00+00:00,0.0
2024-02-28 19:00:00+00:00,0.0
2024-02-28 20:00:00+00:00,0.0
2024-02-29 14:00:00+00:00,0.0
2024-02-29 15:00:00+00:00,0.0
2024-02-29 16:00:00+00:00,0.0
2024-02-29 17:00:00+00:00,0.0
2024-02-29 18:00:00+00:00,0.0
2024-02-29 19:00:00+00:00,0.0
2024-02-29 20:00:00+00:00,0.0
2024-03-01 14:00:00+00:00,0.0
2024-03-01 15:00:00+00:00,0.0
2024-03-01 16:00:00+00:00,0.0
2024-03-01 17:00:00+00:00,0.0
2024-03-01 18:00:00+00:00,0.0
2024-03-01 19:00:00+00:00,0.0
2024-03-01 20:00:00+00:00,0.0
2024-03-04 14:00:00+00:00,0.0
2024-03-04 15:00:00+00:00,0.0
2024-03-04 16:00:00+00:00,0.0
2024-03-04 17:00:00+00:00,0.0
2024-03-04 18:00:00+00:00,0.0
2024-03-04 19:00:00+00:00,0.0
2024-03-04 20:00:00+00:00,0.0
2024-03-05 14:00:00+00:00,0.0
2024-03-05 15:00:00+00:00,0.0
2024-03-05 16:00:00+00:00,0.0
2024-03-05 17:00:00+00:00,0.0
2024-03-05 18:00:00+00:00,0.0
2024-03-05 19:00:00+00:00,0.0
2024-03-05 20:00:00+00:00,0.0
2024-03-06 14:00:00+00:00,0.0
2024-03-06 15:00:00+00:00,0.0
2024-03-06 16:00:00+00:00,0.0
2024-03-06 17:00:00+00:00,0.0
2024-03-06 18:00:00+00:00,0.0
2024-03-06 19:00:00+00:00,0.0
2024-03-06 20:00:00+00:00,0.0
2024-03-07 14:00:00+00:00,0.0
2024-03-07 15:00:00+00:00,0.0
2024-03-07 16:00:00+00:00,0.0
2024-03-07 17:00:00+00:00,0.0
2024-03-07 18:00:00+00:00,0.0
2024-03-07 19:00:00+00:00,0.0
2024-03-07 20:00:00+00:00,0.0
2024-03-08 14:00:00+00:00,0.0
2024-03-08 15:00:00+00:00,0.0
2024-03-08 16:00:00+00:00,0.0
2024-03-08 17:00:00+00:00,0.0
2024-03-08 18:00:00+00:00,0.0
2024-03-08 19:00:00+00:00,0.0
2024-03-08 20:00:00+00:00,0.0
2024-03-11 13:00:00+00:00,0.0
2024-03-11 14:00:00+00:00,0.0
2024-03-11 15:00:00+00:00,0.0
2024-03-11 16:00:00+00:00,0.0
2024-03-11 17:00:00+00:00,0.0
2024-03-11 18:00:00+00:00,0.0
2024-03-11 19:00:00+00:00,0.0
2024-03-12 13:00:00+00:00,0.0
2024-03-12 14:00:00+00:00,0.0
2024-03-12 15:00:00+00:00,0.0
2024-03-12 16:00:00+00:00,0.0
2024-03-12 17:00:00+00:00,0.0
2024-03-12 18:00:00+00:00,0.0
2024-03-12 19:00:00+00:00,0.0
2024-03-13 13:00:00+00:00,0.0
2024-03-13 14:00:00+00:00,0.0
2024-03-13 15:00:00+00:00,0.0
2024-03-13 16:00:00+00:00,0.0
2024-03-13 17:00:00+00:00,0.0
2024-03-13 18:00:00+00:00,0.0
2024-03-13 19:00:00+00:00,0.0
2024-03-14 13:00:00+00:00,0.0
2024-03-14 14:00:00+00:00,0.0
2024-03-14 15:00:00+00:00,0.0
2024-03-14 16:00:00+00:00,0.0
2024-03-14 17:00:00+00:00,0.0
2024-03-14 18:00:00+00:00,0.0
2024-03-14 19:00:00+00:00,0.0
2024-03-15 13:00:00+00:00,0.0
2024-03-15 14:00:00+00:00,0.0
2024-03-15 15:00:00+00:00,0.0
2024-03-15 16:00:00+00:00,0.0
2024-03-15 17:00:00+00:00,0.0
2024-03-15 18:00:00+00:00,0.0
2024-03-15 19:00:00+00:00,0.0
2024-03-18 13:00:00+00:00,0.0
2024-03-18 14:00:00+00:00,0.0
2024-03-18 15:00:00+00:00,0.0
2024-03-18 16:00:00+00:00,0.0
2024-03-18 17:00:00+00:00,0.0
2024-03-18 18:00:00+00:00,0.0
2024-03-18 19:00:00+00:00,0.0
2024-03-19 13:00:00+00:00,0.0
2024-03-19 14:00:00+00:00,0.0
2024-03-19 15:00:00+00:00,0.0
2024-03-19 16:00:00+00:00,0.0
2024-03-19 17:00:00+00:00,0.0
2024-03-19 18:00:00+00:00,0.0
2024-03-19 19:00:00+00:00,0.0
2024-03-20 13:00:00+00:00,0.0
2024-03-20 14:00:00+00:00,0.0
2024-03-20 15:00:00+00:00,0.0
2024-03-20 16:00:00+00:00,0.0
2024-03-20 17:00:00+00:00,0.0
2024-03-20 18:00:00+00:00,0.0
2024-03-20 19:00:00+00:00,0.0
2024-03-21 13:00:00+00:00,0.0
2024-03-21 14:00:00+00:00,0.0
2024-03-21 15:00:00+00:00,0.0
2024-03-21 16:00:00+00:00,0.0
2024-03-21 17:00:00+00:00,0.0
2024-03-21 18:00:00+00:00,0.0
2024-03-21 19:00:00+00:00,0.0
2024-03-22 13:00:00+00:00,0.0
2024-03-22 14:00:00+00:00,0.0
2024-03-22 15:00:00+00:00,0.0
2024-03-22 16:00:00+00:00,0.0
2024-03-22 17:00:00+00:00,0.0
2024-03-22 18:00:00+00:00,0.0
2024-03-22 19:00:00+00:00,0.0
2024-03-25 13:00:00+00:00,0.0
2024-03-25 14:00:00+00:00,0.0
2024-03-25 15:00:00+00:00,0.0
2024-03-25 16:00:00+00:00,0.0
2024-03-25 17:00:00+00:00,0.0
2024-03-25 18:00:00+00:00,0.0
2024-03-25 19:00:00+00:00,0.0
2024-03-26 13:00:00+00:00,0.0
2024-03-26 14:00:00+00:00,0.0
2024-03-26 15:00:00+00:00,0.0
2024-03-26 16:00:00+00:00,0.0
2024-03-26 17:00:00+00:00,0.0
2024-03-26 18:00:00+00:00,0.0
2024-03-26 19:00:00+00:00,0.0
2024-03-27 13:00:00+00:00,0.0
2024-03-27 14:00:00+00:00,0.0
2024-03-27 15:00:00+00:00,0.0
2024-03-27 16:00:00+00:00,0.0
2024-03-27 17:00:00+00:00,0.0
2024-03-27 18:00:00+00:00,0.0
2024-03-27 19:00:00+00:00,0.0
2024-03-28 13:00:00+00:00,0.0
2024-03-28 14:00:00+00:00,0.0
2024-03-28 15:00:00+00:00,0.0
2024-03-28 16:00:00+00:00,0.0
2024-03-28 17:00:00+00:00,0.0
2024-03-28 18:00:00+00:00,0.0
2024-03-28 19:00:00+00:00,0.0
2024-04-01 13:00:00+00:00,0.0
2024-04-01 14:00:00+00:00,0.0
2024-04-01 15:00:00+00:00,0.0
2024-04-01 16:00:00+00:00,0.0
2024-04-01 17:00:00+00:00,0.0
2024-04-01 18:00:00+00:00,0.0
2024-04-01 19:00:00+00:00,0.0
2024-04-02 13:00:00+00:00,0.0
2024-04-02 14:00:00+00:00,0.0
2024-04-02 15:00:00+00:00,0.0
2024-04-02 16:00:00+00:00,0.0
2024-04-02 17:00:00+00:00,0.0
2024-04-02 18:00:00+00:00,0.0
2024-04-02 19:00:00+00:00,0.0
2024-04-03 13:00:00+00:00,0.0
2024-04-03 14:00:00+00:00,0.0
2024-04-03 15:00:00+00:00,0.0
2024-04-03 16:00:00+00:00,0.0
2024-04-03 17:00:00+00:00,0.0
2024-04-03 18:00:00+00:00,0.0
2024-04-03 19:00:00+00:00,0.0
2024-04-04 13:00:00+00:00,0.0
2024-04-04 14:00:00+00:00,0.0
2024-04-04 15:00:00+00:00,0.0
2024-04-04 16:00:00+00:00,0.0
2024-04-04 17:00:00+00:00,0.0
2024-04-04 18:00:00+00:00,0.0
2024-04-04 19:00:00+00:00,0.0
2024-04-05 13:00:00+00:00,0.0
2024-04-05 14:00:00+00:00,0.0
2024-04-05 15:00:00+00:00,0.0
2024-04-05 16:00:00+00:00,0.0
2024-04-05 17:00:00+00:00,0.0
2024-04-05 18:00:00+00:00,0.0
2024-04-05 19:00:00+00:00,0.0
2024-04-08 13:00:00+00:00,0.0
2024-04-08 14:00:00+00:00,0.0
2024-04-08 15:00:00+00:00,0.0
2024-04-08 16:00:00+00:00,0.0
2024-04-08 17:00:00+00:00,0.0
2024-04-08 18:00:00+00:00,0.0
2024-04-08 19:00:00+00:00,0.0
2024-04-09 13:00:00+00:00,0.0
2024-04-09 14:00:00+00:00,0.0
2024-04-09 15:00:00+00:00,0.0
2024-04-09 16:00:00+00:00,0.0
2024-04-09 17:00:00+00:00,0.0
2024-04-09 18:00:00+00:00,0.0
2024-04-09 19:00:00+00:00,0.0
2024-04-10 13:00:00+00:00,0.0
2024-04-10 14:00:00+00:00,0.0
2024-04-10 15:00:00+00:00,0.0
2024-04-10 16:00:00+00:00,0.0
2024-04-10 17:00:00+00:00,0.0
2024-04-10 18:00:00+00:00,0.0
2024-04-10 19:00:00+00:00,0.0
2024-04-11 13:00:00+00:00,0.0
2024-04-11 14:00:00+00:00,0.0
2024-04-11 15:00:00+00:00,0.0
2024-04-11 16:00:00+00:00,0.0
2024-04-11 17:00:00+00:00,0.0
2024-04-11 18:00:00+00:00,0.0
2024-04-11 19:00:00+00:00,0.0
2024-04-12 13:00:00+00:00,0.0
2024-04-12 14:00:00+00:00,0.0
2024-04-12 15:00:00+00:00,0.0
2024-04-12 16:00:00+00:00,0.0
2024-04-12 17:00:00+00:00,0.0
2024-04-12 18:00:00+00:00,0.0
2024-04-12 19:00:00+00:00,0.0
2024-04-15 13:00:00+00:00,0.0
2024-04-15 14:00:00+00:00,0.0
2024-04-15 15:00:00+00:00,0.0
2024-04-15 16:00:00+00:00,0.0
2024-04-15 17:00:00+00:00,0.0
2024-04-15 18:00:00+00:00,0.0
2024-04-15 19:00:00+00:00,0.0
2024-04-16 13:00:00+00:00,0.0
2024-04-16 14:00:00+00:00,0.0
2024-04-16 15:00:00+00:00,0.0
2024-04-16 16:00:00+00:00,0.0
2024-04-16 17:00:00+00:00,0.0
2024-04-16 18:00:00+00:00,0.0
2024-04-16 19:00:00+00:00,0.0
2024-04-17 13:00:00+00:00,0.0
2024-04-17 14:00:00+00:00,0.0
2024-04-17 15:00:00+00:00,0.0
2024-04-17 16:00:00+00:00,0.0
2024-04-17 17:00:00+00:00,0.0
2024-04-17 18:00:00+00:00,0.0
2024-04-17 19:00:00+00:00,0.0
2024-04-18 13:00:00+00:00,0.0
2024-04-18 14:00:00+00:00,0.0
2024-04-18 15:00:00+00:00,0.0
2024-04-18 16:00:00+00:00,0.0
2024-04-18 17:00:00+00:00,0.0
2024-04-18 18:00:00+00:00,0.0
2024-04-18 19:00:00+00:00,0.0
2024-04-19 13:00:00+00:00,0.0
2024-04-19 14:00:00+00:00,0.0
2024-04-19 15:00:00+00:00,0.0
2024-04-19 16:00:00+00:00,0.0
2024-04-19 17:00:00+00:00,0.0
2024-04-19 18:00:00+00:00,0.0
2024-04-19 19:00:00+00:00,0.0
2024-04-22 13:00:00+00:00,0.0
2024-04-22 14:00:00+00:00,0.0
2024-04-22 15:00:00+00:00,0.0
2024-04-22 16:00:00+00:00,0.0
2024-04-22 17:00:00+00:00,0.0
2024-04-22 18:00:00+00:00,0.0
2024-04-22 19:00:00+00:00,0.0
2024-04-23 13:00:00+00:00,0.0
2024-04-23 14:00:00+00:00,0.0
2024-04-23 15:00:00+00:00,0.0
2024-04-23 16:00:00+00:00,0.0
2024-04-23 17:00:00+00:00,0.0
2024-04-23 18:00:00+00:00,0.0
2024-04-23 19:00:00+00:00,0.0
2024-04-24 13:00:00+00:00,0.0
2024-04-24 14:00:00+00:00,0.0
2024-04-24 15:00:00+00:00,0.0
2024-04-24 16:00:00+00:00,0.0
2024-04-24 17:00:00+00:00,0.0
2024-04-24 18:00:00+00:00,0.0
2024-04-24 19:00:00+00:00,0.0
2024-04-25 13:00:00+00:00,0.0
2024-04-25 14:00:00+00:00,0.0
2024-04-25 15:00:00+00:00,0.0
2024-04-25 16:00:00+00:00,0.0
2024-04-25 17:00:00+00:00,0.0
2024-04-25 18:00:00+00:00,0.0
2024-04-25 19:00:00+00:00,0.0
2024-04-26 13:00:00+00:00,0.0
2024-04-26 14:00:00+00:00,0.0
2024-04-26 15:00:00+00:00,0.0
2024-04-26 16:00:00+00:00,0.0
2024-04-26 17:00:00+00:00,0.0
2024-04-26 18:00:00+00:00,0.0
2024-04-26 19:00:00+00:00,0.0
2024-04-29 13:00:00+00:00,0.0
2024-04-29 14:00:00+00:00,0.0
2024-04-29 15:00:00+00:00,0.0
2024-04-29 16:00:00+00:00,0.0
2024-04-29 17:00:00+00:00,0.0
2024-04-29 18:00:00+00:00,0.0
2024-04-29 19:00:00+00:00,0.0
2024-04-30 13:00:00+00:00,0.0
2024-04-30 14:00:00+00:00,0.0
2024-04-30 15:00:00+00:00,0.0
2024-04-30 16:00:00+00:00,0.0
2024-04-30 17:00:00+00:00,0.0
2024-04-30 18:00:00+00:00,0.0
2024-04-30 19:00:00+00:00,0.0
2024-05-01 13:00:00+00:00,0.0
2024-05-01 14:00:00+00:00,0.0
2024-05-01 15:00:00+00:00,0.0
2024-05-01 16:00:00+00:00,0.0
2024-05-01 17:00:00+00:00,0.0
2024-05-01 18:00:00+00:00,0.0
2024-05-01 19:00:00+00:00,0.0
2024-05-02 13:00:00+00:00,0.0
2024-05-02 14:00:00+00:00,0.0
2024-05-02 15:00:00+00:00,0.0
2024-05-02 16:00:00+00:00,0.0
2024-05-02 17:00:00+00:00,0.0
2024-05-02 18:00:00+00:00,0.0
2024-05-02 19:00:00+00:00,0.0
2024-05-03 13:00:00+00:00,0.0
2024-05-03 14:00:00+00:00,0.0
2024-05-03 15:00:00+00:00,0.0
2024-05-03 16:00:00+00:00,0.0
2024-05-03 17:00:00+00:00,0.0
2024-05-03 18:00:00+00:00,0.0
2024-05-03 19:00:00+00:00,0.0
2024-05-06 13:00:00+00:00,0.0
2024-05-06 14:00:00+00:00,0.0
2024-05-06 15:00:00+00:00,0.0
2024-05-06 16:00:00+00:00,0.0
2024-05-06 17:00:00+00:00,0.0
2024-05-06 18:00:00+00:00,0.0
2024-05-06 19:00:00+00:00,0.0
2024-05-07 13:00:00+00:00,0.0
2024-05-07 14:00:00+00:00,0.0
2024-05-07 15:00:00+00:00,0.0
2024-05-07 16:00:00+00:00,0.0
2024-05-07 17:00:00+00:00,0.0
2024-05-07 18:00:00+00:00,0.0
2024-05-07 19:00:00+00:00,0.0
2024-05-08 13:00:00+00:00,0.0
2024-05-08 14:00:00+00:00,0.0
2024-05-08 15:00:00+00:00,0.0
2024-05-08 16:00:00+00:00,0.0
2024-05-08 17:00:00+00:00,0.0
2024-05-08 18:00:00+00:00,0.0
2024-05-08 19:00:00+00:00,0.0
2024-05-09 13:00:00+00:00,0.0
2024-05-09 14:00:00+00:00,0.0
2024-05-09 15:00:00+00:00,0.0
2024-05-09 16:00:00+00:00,0.0
2024-05-09 17:00:00+00:00,0.0
2024-05-09 18:00:00+00:00,0.0
2024-05-09 19:00:00+00:00,0.0
2024-05-10 13:00:00+00:00,0.0
2024-05-10 14:00:00+00:00,0.0
2024-05-10 15:00:00+00:00,0.0
2024-05-10 16:00:00+00:00,0.0
2024-05-10 17:00:00+00:00,0.0
2024-05-10 18:00:00+00:00,0.0
2024-05-10 19:00:00+00:00,0.0
2024-05-13 13:00:00+00:00,0.0
2024-05-13 14:00:00+00:00,0.0
2024-05-13 15:00:00+00:00,0.0
2024-05-13 16:00:00+00:00,0.0
2024-05-13 17:00:00+00:00,0.0
2024-05-13 18:00:00+00:00,0.0
2024-05-13 19:00:00+00:00,0.0
2024-05-14 13:00:00+00:00,0.0
2024-05-14 14:00:00+00:00,0.0
2024-05-14 15:00:00+00:00,0.0
2024-05-14 16:00:00+00:00,0.0
2024-05-14 17:00:00+00:00,0.0
2024-05-14 18:00:00+00:00,0.0
2024-05-14 19:00:00+00:00,0.0
2024-05-15 13:00:00+00:00,0.0
2024-05-15 14:00:00+00:00,0.0
2024-05-15 15:00:00+00:00,0.0
2024-05-15 16:00:00+00:00,0.0
2024-05-15 17:00:00+00:00,0.0
2024-05-15 18:00:00+00:00,0.0
2024-05-15 19:00:00+00:00,0.0
2024-05-16 13:00:00+00:00,0.0
2024-05-16 14:00:00+00:00,0.0
2024-05-16 15:00:00+00:00,0.0
2024-05-16 16:00:00+00:00,0.0
2024-05-16 17:00:00+00:00,0.0
2024-05-16 18:00:00+00:00,0.0
2024-05-16 19:00:00+00:00,0.0
2024-05-17 13:00:00+00:00,0.0
2024-05-17 14:00:00+00:00,0.0
2024-05-17 15:00:00+00:00,0.0
2024-05-17 16:00:00+00:00,0.0
2024-05-17 17:00:00+00:00,0.0
2024-05-17 18:00:00+00:00,0.0
2024-05-17 19:00:00+00:00,0.0
2024-05-20 13:00:00+00:00,0.0
2024-05-20 14:00:00+00:00,0.0
2024-05-20 15:00:00+00:00,0.0
2024-05-20 16:00:00+00:00,0.0
2024-05-20 17:00:00+00:00,0.0
2024-05-20 18:00:00+00:00,0.0
2024-05-20 19:00:00+00:00,0.0
2024-05-21 13:00:00+00:00,0.0
2024-05-21 14:00:00+00:00,0.0
2024-05-21 15:00:00+00:00,0.0
2024-05-21 16:00:00+00:00,0.0
2024-05-21 17:00:00+00:00,0.0
2024-05-21 18:00:00+00:00,0.0
2024-05-21 19:00:00+00:00,0.0
2024-05-22 13:00:00+00:00,0.0
2024-05-22 14:00:00+00:00,0.0
2024-05-22 15:00:00+00:00,0.0
2024-05-22 16:00:00+00:00,0.0
2024-05-22 17:00:00+00:00,0.0
2024-05-22 18:00:00+00:00,0.0
2024-05-22 19:00:00+00:00,0.0
2024-05-23 13:00:00+00:00,0.0
2024-05-23 14:00:00+00:00,0.0
2024-05-23 15:00:00+00:00,0.0
2024-05-23 16:00:00+00:00,0.0
2024-05-23 17:00:00+00:00,0.0
2024-05-23 18:00:00+00:00,0.0
2024-05-23 19:00:00+00:00,0.0
2024-05-24 13:00:00+00:00,0.0
2024-05-24 14:00:00+00:00,0.0
2024-05-24 15:00:00+00:00,0.0
2024-05-24 16:00:00+00:00,0.0
2024-05-24 17:00:00+00:00,0.0
2024-05-24 18:00:00+00:00,0.0
2024-05-24 19:00:00+00:00,0.0
2024-05-28 13:00:00+00:00,0.0
2024-05-28 14:00:00+00:00,0.0
2024-05-28 15:00:00+00:00,0.0
2024-05-28 16:00:00+00:00,0.0
2024-05-28 17:00:00+00:00,0.0
2024-05-28 18:00:00+00:00,0.0
2024-05-28 19:00:00+00:00,0.0
2024-05-29 13:00:00+00:00,0.0
2024-05-29 14:00:00+00:00,0.0
2024-05-29 15:00:00+00:00,0.0
2024-05-29 16:00:00+00:00,0.0
2024-05-29 17:00:00+00:00,0.0
2024-05-29 18:00:00+00:00,0.0
2024-05-29 19:00:00+00:00,0.0
2024-05-30 13:00:00+00:00,0.0
2024-05-30 14:00:00+00:00,0.0
2024-05-30 15:00:00+00:00,0.0
2024-05-30 16:00:00+00:00,0.0
2024-05-30 17:00:00+00:00,0.0
2024-05-30 18:00:00+00:00,0.0
2024-05-30 19:00:00+00:00,0.0
2024-05-31 13:00:00+00:00,0.0
2024-05-31 14:00:00+00:00,0.0
2024-05-31 15:00:00+00:00,0.0
2024-05-31 16:00:00+00:00,0.0
2024-05-31 17:00:00+00:00,0.0
2024-05-31 18:00:00+00:00,0.0
2024-05-31 19:00:00+00:00,0.0
2024-06-03 13:00:00+00:00,0.0
2024-06-03 14:00:00+00:00,0.0
2024-06-03 15:00:00+00:00,0.0
2024-06-03 16:00:00+00:00,0.0
2024-06-03 17:00:00+00:00,0.0
2024-06-03 18:00:00+00:00,0.0
2024-06-03 19:00:00+00:00,0.0
2024-06-04 13:00:00+00:00,0.0
2024-06-04 14:00:00+00:00,0.0
2024-06-04 15:00:00+00:00,0.0
2024-06-04 16:00:00+00:00,0.0
2024-06-04 17:00:00+00:00,0.0
2024-06-04 18:00:00+00:00,0.0
2024-06-04 19:00:00+00:00,0.0
2024-06-05 13:00:00+00:00,0.0
2024-06-05 14:00:00+00:00,0.0
2024-06-05 17:00:00+00:00,0.0
2024-06-05 19:00:00+00:00,0.0
2024-06-06 13:00:00+00:00,0.0
2024-06-06 14:00:00+00:00,0.0
2024-06-07 13:00:00+00:00,0.0
2024-06-07 14:00:00+00:00,0.0
2024-06-07 15:00:00+00:00,0.0
2024-06-07 16:00:00+00:00,0.0
2024-06-07 17:00:00+00:00,0.0
2024-06-07 18:00:00+00:00,0.0
2024-06-07 19:00:00+00:00,0.0
2024-06-10 13:00:00+00:00,0.0
2024-06-10 14:00:00+00:00,0.0
2024-06-10 16:00:00+00:00,0.0
2024-06-10 17:00:00+00:00,0.0
2024-06-10 18:00:00+00:00,0.0
2024-06-10 19:00:00+00:00,0.0
2024-06-11 13:00:00+00:00,0.0
2024-06-11 14:00:00+00:00,0.0
2024-06-11 15:00:00+00:00,0.0
2024-06-11 17:00:00+00:00,0.0
2024-06-11 18:00:00+00:00,0.0
2024-06-11 19:00:00+00:00,0.0
2024-06-12 13:00:00+00:00,0.0
2024-06-12 15:00:00+00:00,0.0
2024-06-12 18:00:00+00:00,0.0
2024-06-12 19:00:00+00:00,0.0
2024-06-13 13:00:00+00:00,0.0
2024-06-13 14:00:00+00:00,0.0
2024-06-13 15:00:00+00:00,0.0
2024-06-13 17:00:00+00:00,0.0
2024-06-13 18:00:00+00:00,0.0
2024-06-13 19:00:00+00:00,0.0
2024-06-14 13:00:00+00:00,0.0
2024-06-14 14:00:00+00:00,0.0
2024-06-14 15:00:00+00:00,0.0
2024-06-14 17:00:00+00:00,0.0
2024-06-14 19:00:00+00:00,0.0
2024-06-17 13:00:00+00:00,0.0
2024-06-17 14:00:00+00:00,0.0
2024-06-17 16:00:00+00:00,0.0
2024-06-17 17:00:00+00:00,0.0
2024-06-17 18:00:00+00:00,0.0
2024-06-17 19:00:00+00:00,0.0
2024-06-18 15:00:00+00:00,0.0
2024-06-18 16:00:00+00:00,0.0
2024-06-18 17:00:00+00:00,0.0
2024-06-18 18:00:00+00:00,0.0
2024-06-18 19:00:00+00:00,0.0
2024-06-20 13:00:00+00:00,0.0
2024-06-20 15:00:00+00:00,0.0
2024-06-20 16:00:00+00:00,0.0
2024-06-20 17:00:00+00:00,0.0
2024-06-20 18:00:00+00:00,0.0
2024-06-21 13:00:00+00:00,0.0
2024-06-21 17:00:00+00:00,0.0
2024-06-21 19:00:00+00:00,0.0
2024-06-24 13:00:00+00:00,0.0
2024-06-24 14:00:00+00:00,0.0
2024-06-24 15:00:00+00:00,0.0
2024-06-24 19:00:00+00:00,0.0
2024-06-25 13:00:00+00:00,0.0
2024-06-25 14:00:00+00:00,0.0
2024-06-25 15:00:00+00:00,0.0
2024-06-25 16:00:00+00:00,0.0
2024-06-25 17:00:00+00:00,0.0
2024-06-25 19:00:00+00:00,0.0
2024-06-26 13:00:00+00:00,0.0
2024-06-26 14:00:00+00:00,0.0
2024-06-26 15:00:00+00:00,0.0
2024-06-26 16:00:00+00:00,0.0
2024-06-26 18:00:00+00:00,0.0
2024-06-26 19:00:00+00:00,0.0
2024-06-27 14:00:00+00:00,0.0
2024-06-27 18:00:00+00:00,0.0
2024-06-27 19:00:00+00:00,0.0
2024-06-28 13:00:00+00:00,0.0
2024-06-28 15:00:00+00:00,0.0
2024-06-28 17:00:00+00:00,0.0
2024-06-28 18:00:00+00:00,0.0
2024-06-28 19:00:00+00:00,0.0
2024-07-01 13:00:00+00:00,0.0
2024-07-01 14:00:00+00:00,0.0
2024-07-01 15:00:00+00:00,0.0
2024-07-01 17:00:00+00:00,0.0
2024-07-01 18:00:00+00:00,0.0
2024-07-02 13:00:00+00:00,0.0
2024-07-02 16:00:00+00:00,0.0
2024-07-02 18:00:00+00:00,0.0
2024-07-02 19:00:00+00:00,0.0
2024-07-03 13:00:00+00:00,0.0
2024-07-03 14:00:00+00:00,0.0
2024-07-03 15:00:00+00:00,0.0
2024-07-05 13:00:00+00:00,0.0
2024-07-05 15:00:00+00:00,0.0
2024-07-05 16:00:00+00:00,0.0
2024-07-05 18:00:00+00:00,0.0
2024-07-05 19:00:00+00:00,0.0
2024-07-08 13:00:00+00:00,0.0
2024-07-08 14:00:00+00:00,0.0
2024-07-08 15:00:00+00:00,0.0
2024-07-08 16:00:00+00:00,0.0
2024-07-08 17:00:00+00:00,0.0
2024-07-08 18:00:00+00:00,0.0
2024-07-08 19:00:00+00:00,0.0
2024-07-09 13:00:00+00:00,0.0
2024-07-09 14:00:00+00:00,0.0
2024-07-09 16:00:00+00:00,0.0
2024-07-09 17:00:00+00:00,0.0
2024-07-09 18:00:00+00:00,0.0
2024-07-10 13:00:00+00:00,0.0
2024-07-10 14:00:00+00:00,0.0
2024-07-10 15:00:00+00:00,0.0
2024-07-10 16:00:00+00:00,0.0
2024-07-10 17:00:00+00:00,0.0
2024-07-10 18:00:00+00:00,0.0
2024-07-10 19:00:00+00:00,0.0
2024-07-11 13:00:00+00:00,0.0
2024-07-11 14:00:00+00:00,0.0
2024-07-11 15:00:00+00:00,0.0
2024-07-11 16:00:00+00:00,0.0
2024-07-11 17:00:00+00:00,0.0
2024-07-11 18:00:00+00:00,0.0
2024-07-12 13:00:00+00:00,0.0
2024-07-12 14:00:00+00:00,0.0
2024-07-12 16:00:00+00:00,0.0
2024-07-15 14:00:00+00:00,0.0
2024-07-15 15:00:00+00:00,0.0
2024-07-15 16:00:00+00:00,0.0
2024-07-15 17:00:00+00:00,0.0
2024-07-15 18:00:00+00:00,0.0
2024-07-15 19:00:00+00:00,0.0
2024-07-16 13:00:00+00:00,0.0
2024-07-16 14:00:00+00:00,0.0
2024-07-16 17:00:00+00:00,0.0
2024-07-16 18:00:00+00:00,0.0
2024-07-16 19:00:00+00:00,0.0
2024-07-17 13:00:00+00:00,0.0
2024-07-17 14:00:00+00:00,0.0
2024-07-17 16:00:00+00:00,0.0
2024-07-17 17:00:00+00:00,0.0
2024-07-17 18:00:00+00:00,0.0
2024-07-17 19:00:00+00:00,0.0
2024-07-18 13:00:00+00:00,0.0
2024-07-18 14:00:00+00:00,0.0
2024-07-18 18:00:00+00:00,0.0
2024-07-18 19:00:00+00:00,0.0
2024-07-19 13:00:00+00:00,0.0
2024-07-19 14:00:00+00:00,0.0
2024-07-19 15:00:00+00:00,0.0
2024-07-19 17:00:00+00:00,0.0
2024-07-19 19:00:00+00:00,0.0
2024-07-22 13:00:00+00:00,0.0
2024-07-22 14:00:00+00:00,0.0
2024-07-22 15:00:00+00:00,0.0
2024-07-22 18:00:00+00:00,0.0
2024-07-22 19:00:00+00:00,0.0
2024-07-23 13:00:00+00:00,0.0
2024-07-23 15:00:00+00:00,0.0
2024-07-23 18:00:00+00:00,0.0
2024-07-23 19:00:00+00:00,0.0
2024-07-24 13:00:00+00:00,0.0
2024-07-24 14:00:00+00:00,0.0
2024-07-24 15:00:00+00:00,0.0
2024-07-24 16:00:00+00:00,0.0
2024-07-24 17:00:00+00:00,0.0
2024-07-24 18:00:00+00:00,0.0
2024-07-24 19:00:00+00:00,0.0
2024-07-25 13:00:00+00:00,0.0
2024-07-25 14:00:00+00:00,0.0
2024-07-25 15:00:00+00:00,0.0
2024-07-25 16:00:00+00:00,0.0
2024-07-25 17:00:00+00:00,0.0
2024-07-25 18:00:00+00:00,0.0
2024-07-25 19:00:00+00:00,0.0
2024-07-26 13:00:00+00:00,0.0
2024-07-26 14:00:00+00:00,0.0
2024-07-26 15:00:00+00:00,0.0
2024-07-26 16:00:00+00:00,0.0
2024-07-26 17:00:00+00:00,0.0
2024-07-26 18:00:00+00:00,0.0
2024-07-26 19:00:00+00:00,0.0
2024-07-29 13:00:00+00:00,0.0
2024-07-29 14:00:00+00:00,0.0
2024-07-29 15:00:00+00:00,0.0
2024-07-29 16:00:00+00:00,0.0
2024-07-29 18:00:00+00:00,0.0
2024-07-30 13:00:00+00:00,0.0
2024-07-30 14:00:00+00:00,0.0
2024-07-30 15:00:00+00:00,0.0
2024-07-30 16:00:00+00:00,0.0
2024-07-30 17:00:00+00:00,0.0
2024-07-30 18:00:00+00:00,0.0
2024-07-30 19:00:00+00:00,0.0
2024-07-31 13:00:00+00:00,0.0
2024-07-31 14:00:00+00:00,0.0
2024-07-31 16:00:00+00:00,0.0
2024-07-31 17:00:00+00:00,0.0
2024-07-31 18:00:00+00:00,0.0
2024-07-31 19:00:00+00:00,0.0
2024-08-01 13:00:00+00:00,0.0
2024-08-01 14:00:00+00:00,0.0
2024-08-01 15:00:00+00:00,0.0
2024-08-01 16:00:00+00:00,0.0
2024-08-01 17:00:00+00:00,0.0
2024-08-01 18:00:00+00:00,0.0
2024-08-01 19:00:00+00:00,0.0
2024-08-02 13:00:00+00:00,0.0
2024-08-02 14:00:00+00:00,0.0
2024-08-02 15:00:00+00:00,0.0
2024-08-02 16:00:00+00:00,0.0
2024-08-02 17:00:00+00:00,0.0
2024-08-02 19:00:00+00:00,0.0
2024-08-05 13:00:00+00:00,0.0
2024-08-05 14:00:00+00:00,0.0
2024-08-05 15:00:00+00:00,0.0
2024-08-05 16:00:00+00:00,0.0
2024-08-05 17:00:00+00:00,0.0
2024-08-05 18:00:00+00:00,0.0
2024-08-05 19:00:00+00:00,0.0
2024-08-06 13:00:00+00:00,0.0
2024-08-06 14:00:00+00:00,0.0
2024-08-06 15:00:00+00:00,0.0
2024-08-06 16:00:00+00:00,0.0
2024-08-06 17:00:00+00:00,0.0
2024-08-06 18:00:00+00:00,0.0
2024-08-06 19:00:00+00:00,0.0
2024-08-07 13:00:00+00:00,0.0
2024-08-07 14:00:00+00:00,0.0
2024-08-07 15:00:00+00:00,0.0
2024-08-07 16:00:00+00:00,0.0
2024-08-07 17:00:00+00:00,0.0
2024-08-07 19:00:00+00:00,0.0
2024-08-08 13:00:00+00:00,0.0
2024-08-08 14:00:00+00:00,0.0
2024-08-08 15:00:00+00:00,0.0
2024-08-08 16:00:00+00:00,0.0
2024-08-08 17:00:00+00:00,0.0
2024-08-08 18:00:00+00:00,0.0
2024-08-08 19:00:00+00:00,0.0
2024-08-09 13:00:00+00:00,0.0
2024-08-09 14:00:00+00:00,0.0
2024-08-09 15:00:00+00:00,0.0
2024-08-09 16:00:00+00:00,0.0
2024-08-09 17:00:00+00:00,0.0
2024-08-09 18:00:00+00:00,0.0
2024-08-12 14:00:00+00:00,0.0
2024-08-12 16:00:00+00:00,0.0
2024-08-12 17:00:00+00:00,0.0
2024-08-12 18:00:00+00:00,0.0
2024-08-12 19:00:00+00:00,0.0
2024-08-13 13:00:00+00:00,0.0
2024-08-13 16:00:00+00:00,0.0
2024-08-13 18:00:00+00:00,0.0
2024-08-13 19:00:00+00:00,0.0
2024-08-14 13:00:00+00:00,0.0
2024-08-14 14:00:00+00:00,0.0
2024-08-14 15:00:00+00:00,0.0
2024-08-14 18:00:00+00:00,0.0
2024-08-14 19:00:00+00:00,0.0
2024-08-15 13:00:00+00:00,0.0
2024-08-15 14:00:00+00:00,0.0
2024-08-15 16:00:00+00:00,0.0
2024-08-15 17:00:00+00:00,0.0
2024-08-15 18:00:00+00:00,0.0
2024-08-16 13:00:00+00:00,0.0
2024-08-16 14:00:00+00:00,0.0
2024-08-16 15:00:00+00:00,0.0
2024-08-16 17:00:00+00:00,0.0
2024-08-16 18:00:00+00:00,0.0
2024-08-16 19:00:00+00:00,0.0
2024-08-19 13:00:00+00:00,0.0
2024-08-19 14:00:00+00:00,0.0
2024-08-19 19:00:00+00:00,0.0
2024-08-20 13:00:00+00:00,0.0
2024-08-20 15:00:00+00:00,0.0
2024-08-20 17:00:00+00:00,0.0
2024-08-20 18:00:00+00:00,0.0
2024-08-21 13:00:00+00:00,0.0
2024-08-21 14:00:00+00:00,0.0
2024-08-21 15:00:00+00:00,0.0
2024-08-21 16:00:00+00:00,0.0
2024-08-21 17:00:00+00:00,0.0
2024-08-21 19:00:00+00:00,0.0
2024-08-22 13:00:00+00:00,0.0
2024-08-22 14:00:00+00:00,0.0
2024-08-22 15:00:00+00:00,0.0
2024-08-22 17:00:00+00:00,0.0
2024-08-22 19:00:00+00:00,0.0
2024-08-23 13:00:00+00:00,0.0
2024-08-23 14:00:00+00:00,0.0
2024-08-23 15:00:00+00:00,0.0
2024-08-23 16:00:00+00:00,0.0
2024-08-23 17:00:00+00:00,0.0
2024-08-23 18:00:00+00:00,0.0
2024-08-26 13:00:00+00:00,0.0
2024-08-26 14:00:00+00:00,0.0
2024-08-26 15:00:00+00:00,0.0
2024-08-26 18:00:00+00:00,0.0
2024-08-26 19:00:00+00:00,0.0
2024-08-27 13:00:00+00:00,0.0
2024-08-27 14:00:00+00:00,0.0
2024-08-27 16:00:00+00:00,0.0
2024-08-27 19:00:00+00:00,0.0
2024-08-28 16:00:00+00:00,0.0
2024-08-28 17:00:00+00:00,0.0
2024-08-28 19:00:00+00:00,0.0
2024-08-29 13:00:00+00:00,0.0
2024-08-29 14:00:00+00:00,0.0
2024-08-29 15:00:00+00:00,0.0
2024-08-29 16:00:00+00:00,0.0
2024-08-29 17:00:00+00:00,0.0
2024-08-29 19:00:00+00:00,0.0
2024-08-30 13:00:00+00:00,0.0
2024-08-30 14:00:00+00:00,0.0
2024-08-30 16:00:00+00:00,0.0
2024-08-30 19:00:00+00:00,0.0
2024-09-03 13:00:00+00:00,0.0
2024-09-03 14:00:00+00:00,0.0
2024-09-03 16:00:00+00:00,0.0
2024-09-03 17:00:00+00:00,0.0
2024-09-03 19:00:00+00:00,0.0
2024-09-04 13:00:00+00:00,0.0
2024-09-04 14:00:00+00:00,0.0
2024-09-04 19:00:00+00:00,0.0
2024-09-05 13:00:00+00:00,0.0
2024-09-05 14:00:00+00:00,0.0
2024-09-05 15:00:00+00:00,0.0
2024-09-05 16:00:00+00:00,0.0
2024-09-05 17:00:00+00:00,0.0
2024-09-05 19:00:00+00:00,0.0
2024-09-06 13:00:00+00:00,0.0
2024-09-06 14:00:00+00:00,0.0
2024-09-06 16:00:00+00:00,0.0
2024-09-06 18:00:00+00:00,0.0
2024-09-06 19:00:00+00:00,0.0
2024-09-09 13:00:00+00:00,0.0
2024-09-09 14:00:00+00:00,0.0
2024-09-09 15:00:00+00:00,0.0
2024-09-09 17:00:00+00:00,0.0
2024-09-09 18:00:00+00:00,0.0
2024-09-09 19:00:00+00:00,0.0
2024-09-10 13:00:00+00:00,0.0
2024-09-10 14:00:00+00:00,0.0
2024-09-10 15:00:00+00:00,0.0
2024-09-10 17:00:00+00:00,0.0
2024-09-10 18:00:00+00:00,0.0
2024-09-10 19:00:00+00:00,0.0
2024-09-11 13:00:00+00:00,0.0
2024-09-11 14:00:00+00:00,0.0
2024-09-11 15:00:00+00:00,0.0
2024-09-11 16:00:00+00:00,0.0
2024-09-11 19:00:00+00:00,0.0
2024-09-12 13:00:00+00:00,0.0
2024-09-12 14:00:00+00:00,0.0
2024-09-12 15:00:00+00:00,0.0
2024-09-12 16:00:00+00:00,0.0
2024-09-12 17:00:00+00:00,0.0
2024-09-12 18:00:00+00:00,0.0
2024-09-12 19:00:00+00:00,0.0
2024-09-13 13:00:00+00:00,0.0
2024-09-13 14:00:00+00:00,0.0
2024-09-13 15:00:00+00:00,0.0
2024-09-16 13:00:00+00:00,0.0
2024-09-16 14:00:00+00:00,0.0
2024-09-16 15:00:00+00:00,0.0
2024-09-16 16:00:00+00:00,0.0
2024-09-16 17:00:00+00:00,0.0
2024-09-16 18:00:00+00:00,0.0
2024-09-16 19:00:00+00:00,0.0
2024-09-17 13:00:00+00:00,0.0
2024-09-17 14:00:00+00:00,0.0
2024-09-17 16:00:00+00:00,0.0
2024-09-17 18:00:00+00:00,0.0
2024-09-17 19:00:00+00:00,0.0
2024-09-18 13:00:00+00:00,0.0
2024-09-18 14:00:00+00:00,0.0
2024-09-18 15:00:00+00:00,0.0
2024-09-18 17:00:00+00:00,0.0
2024-09-18 18:00:00+00:00,0.0
2024-09-18 19:00:00+00:00,0.0
2024-09-19 13:00:00+00:00,0.0
2024-09-19 14:00:00+00:00,0.0
2024-09-19 15:00:00+00:00,0.0
2024-09-19 17:00:00+00:00,0.0
2024-09-19 18:00:00+00:00,0.0
2024-09-20 13:00:00+00:00,0.0
2024-09-20 18:00:00+00:00,0.0
2024-09-20 19:00:00+00:00,0.0
2024-09-23 13:00:00+00:00,0.0
2024-09-23 14:00:00+00:00,0.0
2024-09-23 15:00:00+00:00,0.0
2024-09-23 16:00:00+00:00,0.0
2024-09-23 18:00:00+00:00,0.0
2024-09-23 19:00:00+00:00,0.0
2024-09-24 13:00:00+00:00,0.0
2024-09-24 14:00:00+00:00,0.0
2024-09-24 15:00:00+00:00,0.0
2024-09-24 18:00:00+00:00,0.0
2024-09-24 19:00:00+00:00,0.0
2024-09-25 13:00:00+00:00,0.0
2024-09-25 14:00:00+00:00,0.0
2024-09-25 16:00:00+00:00,0.0
2024-09-25 18:00:00+00:00,0.0
2024-09-26 13:00:00+00:00,0.0
2024-09-26 14:00:00+00:00,0.0
2024-09-26 15:00:00+00:00,0.0
2024-09-26 16:00:00+00:00,0.0
2024-09-26 17:00:00+00:00,0.0
2024-09-26 18:00:00+00:00,0.0
2024-09-26 19:00:00+00:00,0.0
2024-09-27 13:00:00+00:00,0.0
2024-09-27 14:00:00+00:00,0.0
2024-09-27 16:00:00+00:00,0.0
2024-09-27 17:00:00+00:00,0.0
2024-09-27 18:00:00+00:00,0.0
2024-09-27 19:00:00+00:00,0.0
2024-09-30 13:00:00+00:00,0.0
2024-09-30 14:00:00+00:00,0.0
2024-09-30 15:00:00+00:00,0.0
2024-09-30 16:00:00+00:00,0.0
2024-09-30 17:00:00+00:00,0.0
2024-09-30 19:00:00+00:00,0.0
2024-10-01 13:00:00+00:00,0.0
2024-10-01 14:00:00+00:00,0.0
2024-10-01 15:00:00+00:00,0.0
2024-10-01 16:00:00+00:00,0.0
2024-10-01 17:00:00+00:00,0.0
2024-10-01 19:00:00+00:00,0.0
2024-10-02 13:00:00+00:00,0.0
2024-10-02 14:00:00+00:00,0.0
2024-10-02 15:00:00+00:00,0.0
2024-10-02 16:00:00+00:00,0.0
2024-10-02 18:00:00+00:00,0.0
2024-10-02 19:00:00+00:00,0.0
2024-10-03 13:00:00+00:00,0.0
2024-10-03 19:00:00+00:00,0.0
2024-10-04 13:00:00+00:00,0.0
2024-10-04 15:00:00+00:00,0.0
2024-10-04 16:00:00+00:00,0.0
2024-10-04 17:00:00+00:00,0.0
2024-10-04 18:00:00+00:00,0.0
2024-10-04 19:00:00+00:00,0.0
2024-10-07 13:00:00+00:00,0.0
2024-10-07 14:00:00+00:00,0.0
2024-10-07 16:00:00+00:00,0.0
2024-10-07 18:00:00+00:00,0.0
2024-10-08 13:00:00+00:00,0.0
2024-10-08 14:00:00+00:00,0.0
2024-10-08 15:00:00+00:00,0.0
2024-10-08 16:00:00+00:00,0.0
2024-10-08 17:00:00+00:00,0.0
2024-10-09 13:00:00+00:00,0.0
2024-10-09 14:00:00+00:00,0.0
2024-10-09 16:00:00+00:00,0.0
2024-10-10 13:00:00+00:00,0.0
2024-10-10 14:00:00+00:00,0.0
2024-10-10 15:00:00+00:00,0.0
2024-10-10 16:00:00+00:00,0.0
2024-10-11 13:00:00+00:00,0.0
2024-10-11 17:00:00+00:00,0.0
2024-10-14 13:00:00+00:00,0.0
2024-10-14 14:00:00+00:00,0.0
2024-10-14 15:00:00+00:00,0.0
2024-10-14 18:00:00+00:00,0.0
2024-10-14 19:00:00+00:00,0.0
2024-10-15 13:00:00+00:00,0.0
2024-10-15 14:00:00+00:00,0.0
2024-10-15 16:00:00+00:00,0.0
2024-10-15 17:00:00+00:00,0.0
2024-10-15 18:00:00+00:00,0.0
2024-10-16 13:00:00+00:00,0.0
2024-10-16 14:00:00+00:00,0.0
2024-10-16 15:00:00+00:00,0.0
2024-10-16 17:00:00+00:00,0.0
2024-10-16 19:00:00+00:00,0.0
2024-10-17 14:00:00+00:00,0.0
2024-10-17 17:00:00+00:00,0.0
2024-10-17 19:00:00+00:00,0.0
2024-10-18 13:00:00+00:00,0.0
2024-10-18 14:00:00+00:00,0.0
2024-10-18 15:00:00+00:00,0.0
2024-10-18 16:00:00+00:00,0.0
2024-10-18 18:00:00+00:00,0.0
2024-10-18 19:00:00+00:00,0.0
2024-10-21 14:00:00+00:00,0.0
2024-10-21 15:00:00+00:00,0.0
2024-10-21 16:00:00+00:00,0.0
2024-10-21 17:00:00+00:00,0.0
2024-10-21 18:00:00+00:00,0.0
2024-10-21 19:00:00+00:00,0.0
2024-10-22 13:00:00+00:00,0.0
2024-10-22 14:00:00+00:00,0.0
2024-10-22 16:00:00+00:00,0.0
2024-10-22 17:00:00+00:00,0.0
2024-10-22 18:00:00+00:00,0.0
2024-10-22 19:00:00+00:00,0.0
2024-10-23 13:00:00+00:00,0.0
2024-10-23 14:00:00+00:00,0.0
2024-10-23 15:00:00+00:00,0.0
2024-10-23 16:00:00+00:00,0.0
2024-10-23 17:00:00+00:00,0.0
2024-10-23 18:00:00+00:00,0.0
2024-10-23 19:00:00+00:00,0.0
2024-10-24 13:00:00+00:00,0.0
2024-10-24 14:00:00+00:00,0.0
2024-10-24 15:00:00+00:00,0.0
2024-10-24 16:00:00+00:00,0.0
2024-10-24 17:00:00+00:00,0.0
2024-10-24 18:00:00+00:00,0.0
2024-10-25 13:00:00+00:00,0.0
2024-10-25 15:00:00+00:00,0.0
2024-10-25 16:00:00+00:00,0.0
2024-10-25 19:00:00+00:00,0.0
2024-10-28 13:00:00+00:00,0.0
2024-10-28 14:00:00+00:00,0.0
2024-10-28 15:00:00+00:00,0.0
2024-10-28 16:00:00+00:00,0.0
2024-10-28 17:00:00+00:00,0.0
2024-10-28 18:00:00+00:00,0.0
2024-10-28 19:00:00+00:00,0.0
2024-10-29 13:00:00+00:00,0.0
2024-10-29 14:00:00+00:00,0.0
2024-10-29 15:00:00+00:00,0.0
2024-10-29 16:00:00+00:00,0.0
2024-10-29 17:00:00+00:00,0.0
2024-10-29 18:00:00+00:00,0.0
2024-10-29 19:00:00+00:00,0.0
2024-10-30 13:00:00+00:00,0.0
2024-10-30 14:00:00+00:00,0.0
2024-10-30 15:00:00+00:00,0.0
2024-10-30 16:00:00+00:00,0.0
2024-10-30 17:00:00+00:00,0.0
2024-10-30 18:00:00+00:00,0.0
2024-10-30 19:00:00+00:00,0.0
2024-10-31 13:00:00+00:00,0.0
2024-10-31 15:00:00+00:00,0.0
2024-10-31 18:00:00+00:00,0.0
2024-10-31 19:00:00+00:00,0.0
2024-11-01 13:00:00+00:00,0.0
2024-11-01 15:00:00+00:00,0.0
2024-11-01 17:00:00+00:00,0.0
2024-11-01 18:00:00+00:00,0.0
2024-11-01 19:00:00+00:00,0.0
2024-11-04 14:00:00+00:00,0.0
2024-11-04 16:00:00+00:00,0.0
2024-11-04 18:00:00+00:00,0.0
2024-11-04 19:00:00+00:00,0.0
2024-11-04 20:00:00+00:00,0.0
2024-11-05 14:00:00+00:00,0.0
2024-11-05 15:00:00+00:00,0.0
2024-11-05 16:00:00+00:00,0.0
2024-11-05 18:00:00+00:00,0.0
2024-11-05 19:00:00+00:00,0.0
2024-11-05 20:00:00+00:00,0.0
2024-11-06 14:00:00+00:00,0.0
2024-11-06 15:00:00+00:00,0.0
2024-11-06 16:00:00+00:00,0.0
2024-11-06 17:00:00+00:00,0.0
2024-11-06 19:00:00+00:00,0.0
2024-11-06 20:00:00+00:00,0.0
2024-11-07 14:00:00+00:00,0.0
2024-11-07 15:00:00+00:00,0.0
2024-11-07 17:00:00+00:00,0.0
2024-11-07 18:00:00+00:00,0.0
2024-11-07 19:00:00+00:00,0.0
2024-11-08 14:00:00+00:00,0.0
2024-11-08 15:00:00+00:00,0.0
2024-11-08 16:00:00+00:00,0.0
2024-11-08 17:00:00+00:00,0.0
2024-11-08 18:00:00+00:00,0.0
2024-11-08 19:00:00+00:00,0.0
2024-11-08 20:00:00+00:00,0.0
2024-11-11 14:00:00+00:00,0.0
2024-11-11 15:00:00+00:00,0.0
2024-11-11 18:00:00+00:00,0.0
2024-11-11 19:00:00+00:00,0.0
2024-11-11 20:00:00+00:00,0.0
2024-11-12 14:00:00+00:00,0.0
2024-11-12 15:00:00+00:00,0.0
2024-11-12 16:00:00+00:00,0.0
2024-11-12 17:00:00+00:00,0.0
2024-11-12 18:00:00+00:00,0.0
2024-11-12 19:00:00+00:00,0.0
2024-11-12 20:00:00+00:00,0.0
2024-11-13 14:00:00+00:00,0.0
2024-11-13 15:00:00+00:00,0.0
2024-11-13 17:00:00+00:00,0.0
2024-11-13 18:00:00+00:00,0.0
2024-11-13 19:00:00+00:00,0.0
2024-11-13 20:00:00+00:00,0.0
2024-11-14 15:00:00+00:00,0.0
2024-11-14 16:00:00+00:00,0.0
2024-11-14 17:00:00+00:00,0.0
2024-11-14 18:00:00+00:00,0.0
2024-11-14 19:00:00+00:00,0.0
2024-11-14 20:00:00+00:00,0.0
2024-11-15 14:00:00+00:00,0.0
2024-11-15 15:00:00+00:00,0.0
2024-11-15 16:00:00+00:00,0.0
2024-11-15 17:00:00+00:00,0.0
2024-11-15 18:00:00+00:00,0.0
2024-11-15 19:00:00+00:00,0.0
2024-11-15 20:00:00+00:00,0.0
2024-11-18 14:00:00+00:00,0.0
2024-11-18 15:00:00+00:00,0.0
2024-11-18 17:00:00+00:00,0.0
2024-11-18 18:00:00+00:00,0.0
2024-11-18 19:00:00+00:00,0.0
2024-11-18 20:00:00+00:00,0.0
2024-11-19 14:00:00+00:00,0.0
2024-11-19 15:00:00+00:00,0.0
2024-11-19 16:00:00+00:00,0.0
2024-11-19 17:00:00+00:00,0.0
2024-11-19 18:00:00+00:00,0.0
2024-11-19 19:00:00+00:00,0.0
2024-11-19 20:00:00+00:00,0.0
2024-11-20 14:00:00+00:00,0.0
2024-11-20 15:00:00+00:00,0.0
2024-11-20 16:00:00+00:00,0.0
2024-11-20 17:00:00+00:00,0.0
2024-11-20 18:00:00+00:00,0.0
2024-11-20 19:00:00+00:00,0.0
2024-11-20 20:00:00+00:00,0.0
2024-11-21 14:00:00+00:00,0.0
2024-11-21 15:00:00+00:00,0.0
2024-11-21 16:00:00+00:00,0.0
2024-11-21 17:00:00+00:00,0.0
2024-11-21 18:00:00+00:00,0.0
2024-11-21 19:00:00+00:00,0.0
2024-11-21 20:00:00+00:00,0.0
2024-11-22 14:00:00+00:00,0.0
2024-11-22 15:00:00+00:00,0.0
2024-11-22 16:00:00+00:00,0.0
2024-11-22 18:00:00+00:00,0.0
2024-11-22 19:00:00+00:00,0.0
2024-11-25 14:00:00+00:00,0.0
2024-11-25 15:00:00+00:00,0.0
2024-11-25 16:00:00+00:00,0.0
2024-11-25 17:00:00+00:00,0.0
2024-11-25 18:00:00+00:00,0.0
2024-11-25 19:00:00+00:00,0.0
2024-11-25 20:00:00+00:00,0.0
2024-11-26 14:00:00+00:00,0.0
2024-11-26 15:00:00+00:00,0.0
2024-11-26 16:00:00+00:00,0.0
2024-11-26 17:00:00+00:00,0.0
2024-11-26 18:00:00+00:00,0.0
2024-11-26 19:00:00+00:00,0.0
2024-11-26 20:00:00+00:00,0.0
2024-11-27 14:00:00+00:00,0.0
2024-11-27 15:00:00+00:00,0.0
2024-11-27 16:00:00+00:00,0.0
2024-11-27 17:00:00+00:00,0.0
2024-11-27 18:00:00+00:00,0.0
2024-11-27 19:00:00+00:00,0.0
2024-11-27 20:00:00+00:00,0.0
2024-11-29 14:00:00+00:00,0.0
2024-11-29 15:00:00+00:00,0.0
2024-11-29 16:00:00+00:00,0.0
2024-12-02 14:00:00+00:00,0.0
2024-12-02 15:00:00+00:00,0.0
2024-12-02 17:00:00+00:00,0.0
2024-12-02 18:00:00+00:00,0.0
2024-12-02 19:00:00+00:00,0.0
2024-12-02 20:00:00+00:00,0.0
2024-12-03 14:00:00+00:00,0.0
2024-12-03 15:00:00+00:00,0.0
2024-12-03 16:00:00+00:00,0.0
2024-12-03 17:00:00+00:00,0.0
2024-12-03 18:00:00+00:00,0.0
2024-12-03 19:00:00+00:00,0.0
2024-12-03 20:00:00+00:00,0.0
2024-12-04 14:00:00+00:00,0.0
2024-12-04 15:00:00+00:00,0.0
2024-12-04 16:00:00+00:00,0.0
2024-12-04 17:00:00+00:00,0.0
2024-12-04 18:00:00+00:00,0.0
2024-12-04 19:00:00+00:00,0.0
2024-12-05 14:00:00+00:00,0.0
2024-12-05 15:00:00+00:00,0.0
2024-12-05 16:00:00+00:00,0.0
2024-12-05 17:00:00+00:00,0.0
2024-12-05 18:00:00+00:00,0.0
2024-12-05 19:00:00+00:00,0.0
2024-12-05 20:00:00+00:00,0.0
2024-12-06 14:00:00+00:00,0.0
2024-12-06 15:00:00+00:00,0.0
2024-12-06 16:00:00+00:00,0.0
2024-12-06 17:00:00+00:00,0.0
2024-12-06 18:00:00+00:00,0.0
2024-12-06 20:00:00+00:00,0.0
2024-12-09 14:00:00+00:00,0.0
2024-12-09 15:00:00+00:00,0.0
2024-12-09 16:00:00+00:00,0.0
2024-12-09 17:00:00+00:00,0.0
2024-12-09 19:00:00+00:00,0.0
2024-12-09 20:00:00+00:00,0.0
2024-12-10 14:00:00+00:00,0.0
2024-12-10 15:00:00+00:00,0.0
2024-12-10 16:00:00+00:00,0.0
2024-12-10 18:00:00+00:00,0.0
2024-12-10 19:00:00+00:00,0.0
2024-12-11 14:00:00+00:00,0.0
2024-12-11 15:00:00+00:00,0.0
2024-12-11 16:00:00+00:00,0.0
2024-12-11 17:00:00+00:00,0.0
2024-12-11 18:00:00+00:00,0.0
2024-12-11 19:00:00+00:00,0.0
2024-12-11 20:00:00+00:00,0.0
2024-12-12 14:00:00+00:00,0.0
2024-12-12 15:00:00+00:00,0.0
2024-12-12 16:00:00+00:00,0.0
2024-12-12 18:00:00+00:00,0.0
2024-12-12 19:00:00+00:00,0.0
2024-12-12 20:00:00+00:00,0.0
2024-12-13 16:00:00+00:00,0.0
2024-12-13 17:00:00+00:00,0.0
2024-12-13 19:00:00+00:00,0.0
2024-12-13 20:00:00+00:00,0.0
2024-12-16 14:00:00+00:00,0.0
2024-12-16 15:00:00+00:00,0.0
2024-12-16 16:00:00+00:00,0.0
2024-12-16 17:00:00+00:00,0.0
2024-12-16 18:00:00+00:00,0.0
2024-12-16 19:00:00+00:00,0.0
2024-12-16 20:00:00+00:00,0.0
2024-12-17 14:00:00+00:00,0.0
2024-12-17 15:00:00+00:00,0.0
2024-12-17 16:00:00+00:00,0.0
2024-12-17 17:00:00+00:00,0.0
2024-12-17 20:00:00+00:00,0.0
2024-12-18 14:00:00+00:00,0.0
2024-12-18 15:00:00+00:00,0.0
2024-12-18 16:00:00+00:00,0.0
2024-12-18 18:00:00+00:00,0.0
2024-12-18 19:00:00+00:00,0.0
2024-12-18 20:00:00+00:00,0.0
2024-12-19 14:00:00+00:00,0.0
2024-12-19 15:00:00+00:00,0.0
2024-12-19 16:00:00+00:00,0.0
2024-12-19 17:00:00+00:00,0.0
2024-12-19 18:00:00+00:00,0.0
2024-12-19 19:00:00+00:00,0.0
2024-12-19 20:00:00+00:00,0.0
2024-12-20 14:00:00+00:00,0.0
2024-12-20 15:00:00+00:00,0.0
2024-12-20 16:00:00+00:00,0.0
2024-12-20 17:00:00+00:00,0.0
2024-12-20 18:00:00+00:00,0.0
2024-12-20 19:00:00+00:00,0.0
2024-12-20 20:00:00+00:00,0.0
2024-12-23 14:00:00+00:00,0.0
2024-12-23 15:00:00+00:00,0.0
2024-12-23 16:00:00+00:00,0.0
2024-12-23 17:00:00+00:00,0.0
2024-12-23 18:00:00+00:00,0.0
2024-12-23 19:00:00+00:00,0.0
2024-12-23 20:00:00+00:00,0.0
2024-12-24 14:00:00+00:00,0.0
2024-12-24 15:00:00+00:00,0.0
2024-12-24 16:00:00+00:00,0.0
2024-12-26 14:00:00+00:00,0.0
2024-12-26 15:00:00+00:00,0.0
2024-12-26 16:00:00+00:00,0.0
2024-12-26 17:00:00+00:00,0.0
2024-12-26 18:00:00+00:00,0.0
2024-12-26 19:00:00+00:00,0.0
2024-12-26 20:00:00+00:00,0.0
2024-12-27 14:00:00+00:00,0.0
2024-12-27 15:00:00+00:00,0.0
2024-12-27 16:00:00+00:00,0.0
2024-12-27 17:00:00+00:00,0.0
2024-12-27 18:00:00+00:00,0.0
2024-12-27 19:00:00+00:00,0.0
2024-12-27 20:00:00+00:00,0.0
2024-12-30 14:00:00+00:00,0.0
2024-12-30 15:00:00+00:00,0.0
2024-12-30 16:00:00+00:00,0.0
2024-12-30 17:00:00+00:00,0.0
2024-12-30 18:00:00+00:00,0.0
2024-12-30 19:00:00+00:00,0.0
2024-12-30 20:00:00+00:00,0.0
2024-12-31 14:00:00+00:00,0.0
2024-12-31 15:00:00+00:00,0.0
2024-12-31 16:00:00+00:00,0.0
2024-12-31 17:00:00+00:00,0.0
2024-12-31 18:00:00+00:00,0.0
2024-12-31 19:00:00+00:00,0.0
2025-01-02 14:00:00+00:00,0.0
2025-01-02 15:00:00+00:00,0.0
2025-01-02 16:00:00+00:00,0.0
2025-01-02 17:00:00+00:00,0.0
2025-01-02 18:00:00+00:00,0.0
2025-01-02 19:00:00+00:00,0.0
2025-01-02 20:00:00+00:00,0.0
2025-01-03 14:00:00+00:00,0.0
2025-01-03 15:00:00+00:00,0.0
2025-01-03 16:00:00+00:00,0.0
2025-01-03 17:00:00+00:00,0.0
2025-01-03 18:00:00+00:00,0.0
2025-01-03 19:00:00+00:00,0.0
2025-01-03 20:00:00+00:00,0.0
2025-01-06 14:00:00+00:00,0.0
2025-01-06 15:00:00+00:00,0.0
2025-01-06 18:00:00+00:00,0.0
2025-01-06 19:00:00+00:00,0.0
2025-01-06 20:00:00+00:00,0.0
2025-01-07 14:00:00+00:00,0.0
2025-01-07 15:00:00+00:00,0.0
2025-01-07 16:00:00+00:00,0.0
2025-01-07 17:00:00+00:00,0.0
2025-01-07 18:00:00+00:00,0.0
2025-01-07 19:00:00+00:00,0.0
2025-01-07 20:00:00+00:00,0.0
2025-01-08 14:00:00+00:00,0.0
2025-01-08 15:00:00+00:00,0.0
2025-01-08 16:00:00+00:00,0.0
2025-01-08 17:00:00+00:00,0.0
2025-01-08 18:00:00+00:00,0.0
2025-01-08 19:00:00+00:00,0.0
2025-01-08 20:00:00+00:00,0.0
2025-01-10 14:00:00+00:00,0.0
2025-01-10 15:00:00+00:00,0.0
2025-01-10 16:00:00+00:00,0.0
2025-01-10 17:00:00+00:00,0.0
2025-01-10 19:00:00+00:00,0.0
2025-01-10 20:00:00+00:00,0.0
2025-01-13 14:00:00+00:00,0.0
2025-01-13 15:00:00+00:00,0.0
2025-01-13 16:00:00+00:00,0.0
2025-01-13 17:00:00+00:00,0.0
2025-01-13 18:00:00+00:00,0.0
2025-01-13 19:00:00+00:00,0.0
2025-01-13 20:00:00+00:00,0.0
2025-01-14 14:00:00+00:00,0.0
2025-01-14 15:00:00+00:00,0.0
2025-01-14 16:00:00+00:00,0.0
2025-01-14 17:00:00+00:00,0.0
2025-01-14 18:00:00+00:00,0.0
2025-01-14 19:00:00+00:00,0.0
2025-01-14 20:00:00+00:00,0.0
2025-01-15 14:00:00+00:00,0.0
2025-01-15 15:00:00+00:00,0.0
2025-01-15 16:00:00+00:00,0.0
2025-01-15 18:00:00+00:00,0.0
2025-01-15 19:00:00+00:00,0.0
2025-01-15 20:00:00+00:00,0.0
2025-01-16 14:00:00+00:00,0.0
2025-01-16 15:00:00+00:00,0.0
2025-01-16 16:00:00+00:00,0.0
2025-01-16 17:00:00+00:00,0.0
2025-01-16 19:00:00+00:00,0.0
2025-01-16 20:00:00+00:00,0.0
2025-01-17 14:00:00+00:00,0.0
2025-01-17 15:00:00+00:00,0.0
2025-01-17 16:00:00+00:00,0.0
2025-01-17 18:00:00+00:00,0.0
2025-01-17 19:00:00+00:00,0.0
2025-01-17 20:00:00+00:00,0.0
2025-01-21 14:00:00+00:00,0.0
2025-01-21 15:00:00+00:00,0.0
2025-01-21 16:00:00+00:00,0.0
2025-01-21 17:00:00+00:00,0.0
2025-01-21 19:00:00+00:00,0.0
2025-01-21 20:00:00+00:00,0.0
2025-01-22 14:00:00+00:00,0.0
2025-01-22 16:00:00+00:00,0.0
2025-01-22 17:00:00+00:00,0.0
2025-01-22 19:00:00+00:00,0.0
2025-01-22 20:00:00+00:00,0.0
2025-01-23 14:00:00+00:00,0.0
2025-01-23 15:00:00+00:00,0.0
2025-01-23 16:00:00+00:00,0.0
2025-01-23 17:00:00+00:00,0.0
2025-01-23 18:00:00+00:00,0.0
2025-01-23 19:00:00+00:00,0.0
2025-01-23 20:00:00+00:00,0.0
2025-01-24 14:00:00+00:00,0.0
2025-01-24 15:00:00+00:00,0.0
2025-01-24 16:00:00+00:00,0.0
2025-01-24 17:00:00+00:00,0.0
2025-01-24 18:00:00+00:00,0.0
2025-01-24 19:00:00+00:00,0.0
2025-01-24 20:00:00+00:00,0.0
2025-01-27 14:00:00+00:00,0.0
2025-01-27 15:00:00+00:00,0.0
2025-01-27 16:00:00+00:00,0.0
2025-01-27 17:00:00+00:00,0.0
2025-01-27 18:00:00+00:00,0.0
2025-01-27 19:00:00+00:00,0.0
2025-01-27 20:00:00+00:00,0.0
2025-01-28 14:00:00+00:00,0.0
2025-01-28 15:00:00+00:00,0.0
2025-01-28 16:00:00+00:00,0.0
2025-01-28 17:00:00+00:00,0.0
2025-01-28 18:00:00+00:00,0.0
2025-01-28 19:00:00+00:00,0.0
2025-01-29 14:00:00+00:00,0.0
2025-01-29 15:00:00+00:00,0.0
2025-01-29 16:00:00+00:00,0.0
2025-01-29 17:00:00+00:00,0.0
2025-01-29 18:00:00+00:00,0.0
2025-01-29 19:00:00+00:00,0.0
2025-01-29 20:00:00+00:00,0.0
2025-01-30 14:00:00+00:00,0.0
2025-01-30 15:00:00+00:00,0.0
2025-01-30 16:00:00+00:00,0.0
2025-01-30 18:00:00+00:00,0.0
2025-01-30 19:00:00+00:00,0.0
2025-01-30 20:00:00+00:00,0.0
2025-01-31 14:00:00+00:00,0.0
2025-01-31 15:00:00+00:00,0.0
2025-01-31 16:00:00+00:00,0.0
2025-01-31 17:00:00+00:00,0.0
2025-01-31 18:00:00+00:00,0.0
2025-01-31 19:00:00+00:00,0.0
2025-01-31 20:00:00+00:00,0.0
2025-02-03 14:00:00+00:00,0.0
2025-02-03 15:00:00+00:00,0.0
2025-02-03 16:00:00+00:00,0.0
2025-02-03 17:00:00+00:00,0.0
2025-02-03 18:00:00+00:00,0.0
2025-02-03 19:00:00+00:00,0.0
2025-02-03 20:00:00+00:00,0.0
2025-02-04 16:00:00+00:00,0.0
2025-02-04 18:00:00+00:00,0.0
2025-02-04 20:00:00+00:00,0.0
2025-02-05 14:00:00+00:00,0.0
2025-02-05 15:00:00+00:00,0.0
2025-02-05 16:00:00+00:00,0.0
2025-02-05 17:00:00+00:00,0.0
2025-02-05 19:00:00+00:00,0.0
2025-02-05 20:00:00+00:00,0.0
2025-02-06 14:00:00+00:00,0.0
2025-02-06 15:00:00+00:00,0.0
2025-02-06 17:00:00+00:00,0.0
2025-02-06 18:00:00+00:00,0.0
2025-02-06 19:00:00+00:00,0.0
2025-02-06 20:00:00+00:00,0.0
2025-02-07 14:00:00+00:00,0.0
2025-02-07 15:00:00+00:00,0.0
2025-02-07 16:00:00+00:00,0.0
2025-02-07 17:00:00+00:00,0.0
2025-02-07 19:00:00+00:00,0.0
2025-02-07 20:00:00+00:00,0.0
2025-02-10 14:00:00+00:00,0.0
2025-02-10 15:00:00+00:00,0.0
2025-02-10 19:00:00+00:00,0.0
2025-02-10 20:00:00+00:00,0.0
2025-02-11 14:00:00+00:00,0.0
2025-02-11 16:00:00+00:00,0.0
2025-02-11 17:00:00+00:00,0.0
2025-02-11 19:00:00+00:00,0.0
2025-02-11 20:00:00+00:00,0.0
2025-02-12 14:00:00+00:00,0.0
2025-02-12 15:00:00+00:00,0.0
2025-02-12 16:00:00+00:00,0.0
2025-02-12 17:00:00+00:00,0.0
2025-02-12 18:00:00+00:00,0.0
2025-02-12 19:00:00+00:00,0.0
2025-02-12 20:00:00+00:00,0.0
2025-02-13 14:00:00+00:00,0.0
2025-02-13 15:00:00+00:00,0.0
2025-02-13 16:00:00+00:00,0.0
2025-02-13 17:00:00+00:00,0.0
2025-02-13 18:00:00+00:00,0.0
2025-02-13 19:00:00+00:00,0.0
2025-02-13 20:00:00+00:00,0.0
2025-02-14 14:00:00+00:00,0.0
2025-02-14 15:00:00+00:00,0.0
2025-02-14 16:00:00+00:00,0.0
2025-02-14 17:00:00+00:00,0.0
2025-02-14 18:00:00+00:00,0.0
2025-02-14 19:00:00+00:00,0.0
2025-02-14 20:00:00+00:00,0.0
2025-02-18 14:00:00+00:00,0.0
2025-02-18 15:00:00+00:00,0.0
2025-02-18 16:00:00+00:00,0.0
2025-02-18 17:00:00+00:00,0.0
2025-02-18 18:00:00+00:00,0.0
2025-02-18 19:00:00+00:00,0.0
2025-02-18 20:00:00+00:00,0.0
2025-02-19 14:00:00+00:00,0.0
2025-02-19 15:00:00+00:00,0.0
2025-02-19 16:00:00+00:00,0.0
2025-02-19 17:00:00+00:00,0.0
2025-02-19 18:00:00+00:00,0.0
2025-02-19 19:00:00+00:00,0.0
2025-02-19 20:00:00+00:00,0.0
2025-02-20 14:00:00+00:00,0.0
2025-02-20 15:00:00+00:00,0.0
2025-02-20 16:00:00+00:00,0.0
2025-02-20 17:00:00+00:00,0.0
2025-02-20 18:00:00+00:00,0.0
2025-02-20 19:00:00+00:00,0.0
2025-02-21 14:00:00+00:00,0.0
2025-02-21 15:00:00+00:00,0.0
2025-02-21 16:00:00+00:00,0.0
2025-02-21 17:00:00+00:00,0.0
2025-02-21 18:00:00+00:00,0.0
2025-02-21 19:00:00+00:00,0.0
2025-02-21 20:00:00+00:00,0.0
2025-02-24 14:00:00+00:00,0.0
2025-02-24 15:00:00+00:00,0.0
2025-02-24 16:00:00+00:00,0.0
2025-02-24 17:00:00+00:00,0.0
2025-02-24 18:00:00+00:00,0.0
2025-02-24 19:00:00+00:00,0.0
2025-02-24 20:00:00+00:00,0.0
2025-02-25 14:00:00+00:00,0.0
2025-02-25 15:00:00+00:00,0.0
2025-02-25 16:00:00+00:00,0.0
2025-02-25 17:00:00+00:00,0.0
2025-02-25 18:00:00+00:00,0.0
2025-02-25 19:00:00+00:00,0.0
2025-02-25 20:00:00+00:00,0.0
2025-02-26 14:00:00+00:00,0.0
2025-02-26 15:00:00+00:00,0.0
2025-02-26 16:00:00+00:00,0.0
2025-02-26 17:00:00+00:00,0.0
2025-02-26 18:00:00+00:00,0.0
2025-02-26 19:00:00+00:00,0.0
2025-02-26 20:00:00+00:00,0.0
2025-02-27 14:00:00+00:00,0.0
2025-02-27 15:00:00+00:00,0.0
2025-02-27 16:00:00+00:00,0.0
2025-02-27 17:00:00+00:00,0.0
2025-02-27 18:00:00+00:00,0.0
2025-02-27 19:00:00+00:00,0.0
2025-02-27 20:00:00+00:00,0.0
2025-02-28 14:00:00+00:00,0.0
2025-02-28 15:00:00+00:00,0.0
2025-02-28 16:00:00+00:00,0.0
2025-02-28 17:00:00+00:00,0.0
2025-02-28 18:00:00+00:00,0.0
2025-02-28 19:00:00+00:00,0.0
2025-02-28 20:00:00+00:00,0.0
2025-03-03 14:00:00+00:00,0.0
2025-03-03 15:00:00+00:00,0.0
2025-03-03 16:00:00+00:00,0.0
2025-03-03 17:00:00+00:00,0.0
2025-03-03 18:00:00+00:00,0.0
2025-03-03 19:00:00+00:00,0.0
2025-03-03 20:00:00+00:00,0.0
2025-03-04 14:00:00+00:00,0.0
2025-03-04 15:00:00+00:00,0.0
2025-03-04 16:00:00+00:00,0.0
2025-03-04 17:00:00+00:00,0.0
2025-03-04 18:00:00+00:00,0.0
2025-03-04 19:00:00+00:00,0.0
2025-03-04 20:00:00+00:00,0.0
2025-03-05 14:00:00+00:00,0.0
2025-03-05 15:00:00+00:00,0.0
2025-03-05 16:00:00+00:00,0.0
2025-03-05 17:00:00+00:00,0.0
2025-03-05 18:00:00+00:00,0.0
2025-03-05 19:00:00+00:00,0.0
2025-03-05 20:00:00+00:00,0.0
2025-03-06 14:00:00+00:00,0.0
2025-03-06 15:00:00+00:00,0.0
2025-03-06 16:00:00+00:00,0.0
2025-03-06 17:00:00+00:00,0.0
2025-03-06 18:00:00+00:00,0.0
2025-03-06 19:00:00+00:00,0.0
2025-03-06 20:00:00+00:00,0.0
2025-03-07 14:00:00+00:00,0.0
2025-03-07 15:00:00+00:00,0.0
2025-03-07 17:00:00+00:00,0.0
2025-03-07 18:00:00+00:00,0.0
2025-03-07 19:00:00+00:00,0.0
2025-03-07 20:00:00+00:00,0.0
2025-03-10 13:00:00+00:00,0.0
2025-03-10 14:00:00+00:00,0.0
2025-03-10 15:00:00+00:00,0.0
2025-03-10 16:00:00+00:00,0.0
2025-03-10 17:00:00+00:00,0.0
2025-03-10 18:00:00+00:00,0.0
2025-03-10 19:00:00+00:00,0.0
2025-03-11 13:00:00+00:00,0.0
2025-03-11 14:00:00+00:00,0.0
2025-03-11 15:00:00+00:00,0.0
2025-03-11 16:00:00+00:00,0.0
2025-03-11 17:00:00+00:00,0.0
2025-03-11 18:00:00+00:00,0.0
2025-03-11 19:00:00+00:00,0.0
2025-03-12 13:00:00+00:00,0.0
2025-03-12 14:00:00+00:00,0.0
2025-03-12 15:00:00+00:00,0.0
2025-03-12 16:00:00+00:00,0.0
2025-03-12 17:00:00+00:00,0.0
2025-03-12 18:00:00+00:00,0.0
2025-03-12 19:00:00+00:00,0.0
2025-03-13 13:00:00+00:00,0.0
2025-03-13 14:00:00+00:00,0.0
2025-03-13 15:00:00+00:00,0.0
2025-03-13 17:00:00+00:00,0.0
2025-03-13 18:00:00+00:00,0.0
2025-03-13 19:00:00+00:00,0.0
2025-03-14 13:00:00+00:00,0.0
2025-03-14 14:00:00+00:00,0.0
2025-03-14 15:00:00+00:00,0.0
2025-03-14 16:00:00+00:00,0.0
2025-03-14 17:00:00+00:00,0.0
2025-03-14 18:00:00+00:00,0.0
2025-03-14 19:00:00+00:00,0.0
2025-03-17 13:00:00+00:00,0.0
2025-03-17 14:00:00+00:00,0.0
2025-03-17 15:00:00+00:00,0.0
2025-03-17 16:00:00+00:00,0.0
2025-03-17 17:00:00+00:00,0.0
2025-03-17 18:00:00+00:00,0.0
2025-03-17 19:00:00+00:00,0.0
2025-03-18 13:00:00+00:00,0.0
2025-03-18 14:00:00+00:00,0.0
2025-03-18 15:00:00+00:00,0.0
2025-03-18 16:00:00+00:00,0.0
2025-03-18 17:00:00+00:00,0.0
2025-03-18 18:00:00+00:00,0.0
2025-03-18 19:00:00+00:00,0.0
2025-03-19 13:00:00+00:00,0.0
2025-03-19 14:00:00+00:00,0.0
2025-03-19 15:00:00+00:00,0.0
2025-03-19 16:00:00+00:00,0.0
2025-03-19 17:00:00+00:00,0.0
2025-03-19 18:00:00+00:00,0.0
2025-03-19 19:00:00+00:00,0.0
2025-03-20 13:00:00+00:00,0.0
2025-03-20 14:00:00+00:00,0.0
2025-03-20 15:00:00+00:00,0.0
2025-03-20 16:00:00+00:00,0.0
2025-03-20 17:00:00+00:00,0.0
2025-03-20 18:00:00+00:00,0.0
2025-03-20 19:00:00+00:00,0.0
2025-03-21 13:00:00+00:00,0.0
2025-03-21 14:00:00+00:00,0.0
2025-03-21 15:00:00+00:00,0.0
2025-03-21 16:00:00+00:00,0.0
2025-03-21 17:00:00+00:00,0.0
2025-03-21 18:00:00+00:00,0.0
2025-03-21 19:00:00+00:00,0.0
2025-03-24 13:00:00+00:00,0.0
2025-03-24 14:00:00+00:00,0.0
2025-03-24 15:00:00+00:00,0.0
2025-03-24 16:00:00+00:00,0.0
2025-03-24 17:00:00+00:00,0.0
2025-03-24 18:00:00+00:00,0.0
2025-03-24 19:00:00+00:00,0.0
2025-03-25 13:00:00+00:00,0.0
2025-03-25 14:00:00+00:00,0.0
2025-03-25 15:00:00+00:00,0.0
2025-03-25 16:00:00+00:00,0.0
2025-03-25 17:00:00+00:00,0.0
2025-03-25 18:00:00+00:00,0.0
2025-03-25 19:00:00+00:00,0.0
2025-03-26 13:00:00+00:00,0.0
2025-03-26 14:00:00+00:00,0.0
2025-03-26 15:00:00+00:00,0.0
2025-03-26 16:00:00+00:00,0.0
2025-03-26 17:00:00+00:00,0.0
2025-03-26 18:00:00+00:00,0.0
2025-03-26 19:00:00+00:00,0.0
2025-03-27 13:00:00+00:00,0.0
2025-03-27 14:00:00+00:00,0.0
2025-03-27 15:00:00+00:00,0.0
2025-03-27 16:00:00+00:00,0.0
2025-03-27 17:00:00+00:00,0.0
2025-03-27 18:00:00+00:00,0.0
2025-03-27 19:00:00+00:00,0.0
2025-03-28 13:00:00+00:00,0.0
2025-03-28 14:00:00+00:00,0.0
2025-03-28 15:00:00+00:00,0.0
2025-03-28 16:00:00+00:00,0.0
2025-03-28 17:00:00+00:00,0.0
2025-03-28 18:00:00+00:00,0.0
2025-03-28 19:00:00+00:00,0.0
2025-03-31 13:00:00+00:00,0.0
2025-03-31 14:00:00+00:00,0.0
2025-03-31 15:00:00+00:00,0.0
2025-03-31 16:00:00+00:00,0.0
2025-03-31 17:00:00+00:00,0.0
2025-03-31 18:00:00+00:00,0.0
2025-03-31 19:00:00+00:00,0.0
2025-04-01 13:00:00+00:00,0.0
2025-04-01 14:00:00+00:00,0.0
2025-04-01 15:00:00+00:00,0.0
2025-04-01 16:00:00+00:00,0.0
2025-04-01 17:00:00+00:00,0.0
2025-04-01 18:00:00+00:00,0.0
2025-04-01 19:00:00+00:00,0.0
2025-04-02 13:00:00+00:00,0.0
2025-04-02 14:00:00+00:00,0.0
2025-04-02 16:00:00+00:00,0.0
2025-04-02 17:00:00+00:00,0.0
2025-04-02 18:00:00+00:00,0.0
2025-04-02 19:00:00+00:00,0.0
2025-04-03 13:00:00+00:00,0.0
2025-04-03 14:00:00+00:00,0.0
2025-04-03 15:00:00+00:00,0.0
2025-04-03 16:00:00+00:00,0.0
2025-04-03 17:00:00+00:00,0.0
2025-04-03 18:00:00+00:00,0.0
2025-04-03 19:00:00+00:00,0.0
2025-04-04 13:00:00+00:00,0.0
2025-04-04 14:00:00+00:00,0.0
2025-04-04 15:00:00+00:00,0.0
2025-04-04 16:00:00+00:00,0.0
2025-04-04 17:00:00+00:00,0.0
2025-04-04 18:00:00+00:00,0.0
2025-04-04 19:00:00+00:00,0.0
2025-04-07 13:00:00+00:00,0.0
2025-04-07 14:00:00+00:00,0.0
2025-04-07 15:00:00+00:00,0.0
2025-04-07 16:00:00+00:00,0.0
2025-04-07 17:00:00+00:00,0.0
2025-04-07 18:00:00+00:00,0.0
2025-04-07 19:00:00+00:00,0.0
2025-04-08 13:00:00+00:00,0.0
2025-04-08 14:00:00+00:00,0.0
2025-04-08 15:00:00+00:00,0.0
2025-04-08 16:00:00+00:00,0.0
2025-04-08 17:00:00+00:00,0.0
2025-04-08 18:00:00+00:00,0.0
2025-04-08 19:00:00+00:00,0.0
2025-04-09 13:00:00+00:00,0.0
2025-04-09 14:00:00+00:00,0.0
2025-04-09 15:00:00+00:00,0.0
2025-04-09 16:00:00+00:00,0.0
2025-04-09 17:00:00+00:00,0.0
2025-04-09 18:00:00+00:00,0.0
2025-04-09 19:00:00+00:00,0.0
2025-04-10 13:00:00+00:00,0.0
2025-04-10 14:00:00+00:00,0.0
2025-04-10 15:00:00+00:00,0.0
2025-04-10 16:00:00+00:00,0.0
2025-04-10 17:00:00+00:00,0.0
2025-04-10 18:00:00+00:00,0.0
2025-04-10 19:00:00+00:00,0.0
2025-04-11 13:00:00+00:00,0.0
2025-04-11 14:00:00+00:00,0.0
2025-04-11 15:00:00+00:00,0.0
2025-04-11 16:00:00+00:00,0.0
2025-04-11 17:00:00+00:00,0.0
2025-04-11 18:00:00+00:00,0.0
2025-04-11 19:00:00+00:00,0.0
2025-04-14 13:00:00+00:00,0.0
2025-04-14 14:00:00+00:00,0.0
2025-04-14 15:00:00+00:00,0.0
2025-04-14 16:00:00+00:00,0.0
2025-04-14 17:00:00+00:00,0.0
2025-04-14 18:00:00+00:00,0.0
2025-04-14 19:00:00+00:00,0.0
2025-04-15 13:00:00+00:00,0.0
2025-04-15 14:00:00+00:00,0.0
2025-04-15 15:00:00+00:00,0.0
2025-04-15 16:00:00+00:00,0.0
2025-04-15 17:00:00+00:00,0.0
2025-04-15 18:00:00+00:00,0.0
2025-04-15 19:00:00+00:00,0.0
2025-04-16 13:00:00+00:00,0.0
2025-04-16 14:00:00+00:00,0.0
2025-04-16 15:00:00+00:00,0.0
2025-04-16 17:00:00+00:00,0.0
2025-04-16 18:00:00+00:00,0.0
2025-04-16 19:00:00+00:00,0.0
2025-04-17 13:00:00+00:00,0.0
2025-04-17 14:00:00+00:00,0.0
2025-04-17 15:00:00+00:00,0.0
2025-04-17 16:00:00+00:00,0.0
2025-04-17 17:00:00+00:00,0.0
2025-04-17 18:00:00+00:00,0.0
2025-04-17 19:00:00+00:00,0.0
2025-04-21 13:00:00+00:00,0.0
2025-04-21 14:00:00+00:00,0.0
2025-04-21 15:00:00+00:00,0.0
2025-04-21 16:00:00+00:00,0.0
2025-04-21 17:00:00+00:00,0.0
2025-04-21 18:00:00+00:00,0.0
2025-04-21 19:00:00+00:00,0.0
2025-04-22 13:00:00+00:00,0.0
2025-04-22 14:00:00+00:00,0.0
2025-04-22 15:00:00+00:00,0.0
2025-04-22 16:00:00+00:00,0.0
2025-04-22 17:00:00+00:00,0.0
2025-04-22 18:00:00+00:00,0.0
2025-04-22 19:00:00+00:00,0.0
2025-04-23 13:00:00+00:00,0.0
2025-04-23 14:00:00+00:00,0.0
2025-04-23 15:00:00+00:00,0.0
2025-04-23 16:00:00+00:00,0.0
2025-04-23 17:00:00+00:00,0.0
2025-04-23 18:00:00+00:00,0.0
2025-04-23 19:00:00+00:00,0.0
2025-04-24 13:00:00+00:00,0.0
2025-04-24 14:00:00+00:00,0.0
2025-04-24 16:00:00+00:00,0.0
2025-04-24 17:00:00+00:00,0.0
2025-04-24 18:00:00+00:00,0.0
2025-04-24 19:00:00+00:00,0.0
2025-04-25 13:00:00+00:00,0.0
2025-04-25 14:00:00+00:00,0.0
2025-04-25 15:00:00+00:00,0.0
2025-04-25 16:00:00+00:00,0.0
2025-04-25 17:00:00+00:00,0.0
2025-04-25 18:00:00+00:00,0.0
2025-04-25 19:00:00+00:00,0.0
2025-04-28 13:00:00+00:00,0.0
2025-04-28 14:00:00+00:00,0.0
2025-04-28 15:00:00+00:00,0.0
2025-04-28 16:00:00+00:00,0.0
2025-04-28 17:00:00+00:00,0.0
2025-04-28 18:00:00+00:00,0.0
2025-04-28 19:00:00+00:00,0.0
2025-04-29 13:00:00+00:00,0.0
2025-04-29 14:00:00+00:00,0.0
2025-04-29 15:00:00+00:00,0.0
2025-04-29 16:00:00+00:00,0.0
2025-04-29 17:00:00+00:00,0.0
2025-04-29 19:00:00+00:00,0.0
2025-04-30 13:00:00+00:00,0.0
2025-04-30 14:00:00+00:00,26.520255850800545
2025-04-30 15:00:00+00:00,29.362840633305627
2025-04-30 16:00:00+00:00,-29.322371888670165
2025-04-30 17:00:00+00:00,-39.924442405480214
2025-04-30 18:00:00+00:00,-20.267060153067522
2025-05-01 13:00:00+00:00,-210.7181540392611
2025-05-01 14:00:00+00:00,-200.50868360371354
2025-05-01 15:00:00+00:00,-162.8780680897073
2025-05-01 16:00:00+00:00,-182.14084008225376
2025-05-01 17:00:00+00:00,-153.71389328017065
2025-05-01 18:00:00+00:00,-169.98431940363184
2025-05-01 19:00:00+00:00,-114.91183809704555
2025-05-02 13:00:00+00:00,-206.42020253753958
2025-05-02 14:00:00+00:00,-199.4531076187843
2025-05-02 15:00:00+00:00,-272.1370818512204
2025-05-02 16:00:00+00:00,-279.18330609357804
2025-05-02 17:00:00+00:00,-282.8631535935874
2025-05-02 18:00:00+00:00,-254.23997627964002
2025-05-02 19:00:00+00:00,-232.29820323532897
2025-05-05 13:00:00+00:00,-230.2619979882271
2025-05-05 14:00:00+00:00,-203.8182464594352
2025-05-05 15:00:00+00:00,-186.90805100178392
2025-05-05 16:00:00+00:00,-170.24923638606737
2025-05-05 17:00:00+00:00,-182.42634068860622
2025-05-05 18:00:00+00:00,-158.13217420308604
2025-05-05 19:00:00+00:00,-135.7073494852689
2025-05-06 13:00:00+00:00,-112.30255230838063
2025-05-06 14:00:00+00:00,-56.26355499951305
2025-05-06 15:00:00+00:00,-26.32871216290181
2025-05-06 16:00:00+00:00,41.51562963964997
2025-05-06 17:00:00+00:00,40.26649230584192
2025-05-06 18:00:00+00:00,43.66013141116072
2025-05-06 19:00:00+00:00,57.44319671768028
2025-05-07 13:00:00+00:00,87.83026458250689
2025-05-07 15:00:00+00:00,126.61756672063183
2025-05-07 17:00:00+00:00,193.4085279918216
2025-05-07 18:00:00+00:00,172.97398167827345
2025-05-07 19:00:00+00:00,149.675014406242
2025-05-08 13:00:00+00:00,42.875537066505515
2025-05-08 14:00:00+00:00,3.922792577231725
2025-05-08 15:00:00+00:00,-66.80467446250296
2025-05-08 16:00:00+00:00,-78.48435273457072
2025-05-08 17:00:00+00:00,-41.213172775136385
2025-05-08 18:00:00+00:00,-85.65538656378445
2025-05-08 19:00:00+00:00,-33.64311253678416
2025-05-09 13:00:00+00:00,-62.22013587806049
2025-05-09 14:00:00+00:00,-64.05230719332059
2025-05-09 15:00:00+00:00,-49.31121312575789
2025-05-09 16:00:00+00:00,-55.252945937921105
2025-05-09 17:00:00+00:00,-47.358136709418865
2025-05-09 18:00:00+00:00,-22.573444230721634
2025-05-09 19:00:00+00:00,-33.552035676928085
2025-05-12 13:00:00+00:00,-473.02698414421275
2025-05-12 14:00:00+00:00,-518.3138343970751
2025-05-12 15:00:00+00:00,-494.924358995988
2025-05-12 16:00:00+00:00,-546.04712465682
2025-05-12 17:00:00+00:00,-525.4997603288226
2025-05-12 18:00:00+00:00,-511.28654580056656
2025-05-12 19:00:00+00:00,-522.5213783427055
2025-05-13 13:00:00+00:00,-516.1499700182216
2025-05-13 14:00:00+00:00,-563.8269899826035
2025-05-13 15:00:00+00:00,-575.3483090345022
2025-05-13 17:00:00+00:00,-560.5545906302418
2025-05-13 18:00:00+00:00,-552.7352458700625
2025-05-13 19:00:00+00:00,-500.06685194054114
2025-05-14 13:00:00+00:00,-491.7884771362375
2025-05-14 14:00:00+00:00,-473.6313775411434
2025-05-14 15:00:00+00:00,-470.5251338798443
2025-05-14 16:00:00+00:00,-434.5879858652814
2025-05-14 17:00:00+00:00,-430.75035342748595
2025-05-14 18:00:00+00:00,-448.1004482195624
2025-05-14 19:00:00+00:00,-458.4307287348031
2025-05-15 13:00:00+00:00,-427.94516622725934
2025-05-15 14:00:00+00:00,-468.63939080905226
2025-05-15 15:00:00+00:00,-485.79382937164587
2025-05-15 16:00:00+00:00,-461.7026543777478
2025-05-15 17:00:00+00:00,-471.1728320438574
2025-05-15 18:00:00+00:00,-492.7703597463201
2025-05-15 19:00:00+00:00,-495.5580684401521
2025-05-16 13:00:00+00:00,-489.7822076524025
2025-05-16 14:00:00+00:00,-479.40662556194127
2025-05-16 15:00:00+00:00,-491.5387629411424
2025-05-16 16:00:00+00:00,-506.26500894232316
2025-05-16 17:00:00+00:00,-527.2421878401781
2025-05-16 18:00:00+00:00,-541.819784318507
2025-05-16 19:00:00+00:00,-549.0784215953645
2025-05-19 13:00:00+00:00,-478.85632861519207
2025-05-19 14:00:00+00:00,-519.2190432270771
2025-05-19 15:00:00+00:00,-533.2736204200953
2025-05-19 16:00:00+00:00,-545.5341372200488
2025-05-19 17:00:00+00:00,-530.197312522063
2025-05-19 18:00:00+00:00,-509.65008725160055
2025-05-19 19:00:00+00:00,-519.1581927462199
2025-05-20 13:00:00+00:00,-481.6075143866209
2025-05-20 14:00:00+00:00,-481.3964358083733
2025-05-20 15:00:00+00:00,-460.0273701691696
2025-05-20 16:00:00+00:00,-444.2683883146868
2025-05-20 17:00:00+00:00,-418.6958222731673
2025-05-20 18:00:00+00:00,-393.42488697510095
2025-05-20 19:00:00+00:00,-415.5703083141377
2025-05-21 13:00:00+00:00,-316.53727328281286
2025-05-21 14:00:00+00:00,-296.3517333760224
2025-05-21 15:00:00+00:00,-302.58762261196676
2025-05-21 16:00:00+00:00,-217.4303942125809
2025-05-21 17:00:00+00:00,-230.84979309021847
2025-05-21 18:00:00+00:00,-210.2427087938828
2025-05-21 19:00:00+00:00,-224.7574975287812
2025-05-22 13:00:00+00:00,-188.5794867309006
2025-05-22 14:00:00+00:00,-169.84227956229716
2025-05-22 16:00:00+00:00,-202.9512435730105
2025-05-22 17:00:00+00:00,-220.96584637539033
2025-05-22 18:00:00+00:00,-250.82378070934308
2025-05-22 19:00:00+00:00,-222.54057913996377
2025-05-23 13:00:00+00:00,-60.235536308696595
2025-05-23 14:00:00+00:00,-73.9527731387059
2025-05-23 15:00:00+00:00,-67.70945361923947
2025-05-23 16:00:00+00:00,-85.00664595955112
2025-05-23 17:00:00+00:00,-91.97387993584034
2025-05-23 18:00:00+00:00,-102.44945196192765
2025-05-23 19:00:00+00:00,-95.93989179438756
2025-05-27 13:00:00+00:00,-232.43329265060558
2025-05-27 14:00:00+00:00,-261.00317632408985
2025-05-27 15:00:00+00:00,-271.0749255189249
2025-05-27 16:00:00+00:00,-283.2394404440637
2025-05-27 17:00:00+00:00,-290.87782548294643
2025-05-27 18:00:00+00:00,-281.444862305429
2025-05-27 19:00:00+00:00,-291.7372149921613
2025-05-28 13:00:00+00:00,-250.97466560983727
2025-05-28 14:00:00+00:00,-235.11010043007934
2025-05-28 15:00:00+00:00,-250.2432768333393
2025-05-28 16:00:00+00:00,-242.0494088217074
2025-05-28 17:00:00+00:00,-219.87899811490541
2025-05-28 18:00:00+00:00,-200.8247767764356
2025-05-28 19:00:00+00:00,-168.00999561119102
2025-05-29 13:00:00+00:00,-184.96021159667805
2025-05-29 14:00:00+00:00,-192.3191932567827
2025-05-29 15:00:00+00:00,-189.6427201291884
2025-05-29 16:00:00+00:00,-204.54959119978176
2025-05-29 17:00:00+00:00,-202.2878449451634
2025-05-29 18:00:00+00:00,-225.34543168830655
2025-05-29 19:00:00+00:00,-236.6710945107223
2025-05-30 13:00:00+00:00,-193.85815556709667
2025-05-30 14:00:00+00:00,-186.09139110746443
2025-05-30 15:00:00+00:00,-165.5597272432999
2025-05-30 16:00:00+00:00,-164.2852762092292
2025-05-30 17:00:00+00:00,-172.71492155114456
2025-05-30 18:00:00+00:00,-200.9304551230948
2025-05-30 19:00:00+00:00,-188.0817260485451
2025-06-02 13:00:00+00:00,7.180963579245912
2025-06-02 14:00:00+00:00,20.31571795479757
2025-06-02 15:00:00+00:00,57.14542218654181
2025-06-02 16:00:00+00:00,31.00796194878049
2025-06-02 17:00:00+00:00,-0.9978311669633442
2025-06-02 18:00:00+00:00,-0.19344042962413255
2025-06-02 19:00:00+00:00,-14.625530007023146
2025-06-03 13:00:00+00:00,-48.360702720536935
2025-06-03 14:00:00+00:00,-74.6763144590748
2025-06-03 15:00:00+00:00,-102.03180171870815
2025-06-03 16:00:00+00:00,-104.61034893438597
2025-06-03 17:00:00+00:00,-98.94007147191182
2025-06-03 18:00:00+00:00,-83.36242802675915
2025-06-03 19:00:00+00:00,-97.34172384514142
2025-06-04 13:00:00+00:00,-100.79508291879776
2025-06-04 14:00:00+00:00,-133.82455229502546
2025-06-04 15:00:00+00:00,-141.19566882238033
2025-06-04 16:00:00+00:00,-173.02495417810374
2025-06-04 17:00:00+00:00,-150.28157312435184
2025-06-04 18:00:00+00:00,-159.9103881257003
2025-06-04 19:00:00+00:00,-137.90790365806726
2025-06-05 13:00:00+00:00,-106.78216134233271
2025-06-05 14:00:00+00:00,-147.5598934429234
2025-06-05 15:00:00+00:00,-187.6890239968171
2025-06-05 16:00:00+00:00,-158.81091056373793
2025-06-05 17:00:00+00:00,-149.91228688413327
2025-06-05 18:00:00+00:00,-116.05691685787875
2025-06-05 19:00:00+00:00,-132.76631409619662
2025-06-06 13:00:00+00:00,-312.14830840713137
2025-06-06 14:00:00+00:00,-310.549721149862
2025-06-06 15:00:00+00:00,-355.5311002047583
2025-06-06 16:00:00+00:00,-313.15905652625753
2025-06-06 17:00:00+00:00,-311.99756256417135
2025-06-06 18:00:00+00:00,-322.8555395250334
2025-06-06 19:00:00+00:00,-334.7993944214621
2025-06-09 13:00:00+00:00,-365.21634151274316
2025-06-09 14:00:00+00:00,-335.41715682221
2025-06-09 15:00:00+00:00,-346.6445590808282
2025-06-09 16:00:00+00:00,-390.4007737404981
2025-06-09 17:00:00+00:00,-372.77141462717657
2025-06-09 18:00:00+00:00,-359.8023932185031
2025-06-09 19:00:00+00:00,-343.86254666410963
2025-06-10 13:00:00+00:00,-439.5858287969457
2025-06-10 14:00:00+00:00,-502.29773817909864
2025-06-10 15:00:00+00:00,-469.6334456118563
2025-06-10 16:00:00+00:00,-506.18103326568746
2025-06-10 17:00:00+00:00,-463.91820122604344
2025-06-10 18:00:00+00:00,-472.8214325371954
2025-06-10 19:00:00+00:00,-488.77088385339033
2025-06-11 13:00:00+00:00,-458.4664641608279
2025-06-11 14:00:00+00:00,-424.03031214350256
2025-06-11 15:00:00+00:00,-402.46519908612026
2025-06-11 16:00:00+00:00,-432.89766354755267
2025-06-11 18:00:00+00:00,-328.1486707904993
2025-06-11 19:00:00+00:00,-313.9128117249636
2025-06-12 13:00:00+00:00,-195.44004395646468
2025-06-12 14:00:00+00:00,-146.012631295018
2025-06-12 15:00:00+00:00,-133.76854545543176
2025-06-12 17:00:00+00:00,-139.38605952367567
2025-06-12 18:00:00+00:00,-112.60298905341962
2025-06-12 19:00:00+00:00,-111.8792576902806
2025-06-13 13:00:00+00:00,216.6335979304003
2025-06-13 14:00:00+00:00,159.38048232274923
2025-06-13 15:00:00+00:00,195.05354873433407
2025-06-13 16:00:00+00:00,277.4983312589137
2025-06-13 17:00:00+00:00,339.7656044265179
2025-06-13 18:00:00+00:00,392.0271629753437
2025-06-13 19:00:00+00:00,377.46669397719324
2025-06-16 13:00:00+00:00,213.07499018334997
2025-06-16 14:00:00+00:00,302.5019497719891
2025-06-16 15:00:00+00:00,279.7193882124282
2025-06-16 16:00:00+00:00,251.56052252048636
2025-06-16 17:00:00+00:00,243.14563022357154
2025-06-16 18:00:00+00:00,235.66554786804525
2025-06-16 19:00:00+00:00,205.0218217346815
2025-06-17 13:00:00+00:00,257.92407783726554
2025-06-17 14:00:00+00:00,270.2749071719249
2025-06-17 15:00:00+00:00,236.05758616758976
2025-06-17 16:00:00+00:00,290.3623821092636
2025-06-17 17:00:00+00:00,340.30862264793916
2025-06-17 18:00:00+00:00,342.05837292077194
2025-06-17 19:00:00+00:00,326.8115261056138
2025-06-18 13:00:00+00:00,277.2384322567832
2025-06-18 15:00:00+00:00,302.68151400444174
2025-06-18 17:00:00+00:00,299.9232069619628
2025-06-18 18:00:00+00:00,302.44903481956214
2025-06-18 19:00:00+00:00,265.97724628593403
2025-06-20 13:00:00+00:00,216.43779709180257
2025-06-20 14:00:00+00:00,269.4761850498807
2025-06-20 15:00:00+00:00,258.51286439424064
2025-06-20 16:00:00+00:00,275.66625496503775
2025-06-20 18:00:00+00:00,264.74100119544136
2025-06-20 19:00:00+00:00,236.61544550631453
2025-06-23 13:00:00+00:00,265.5780752676796
2025-06-23 14:00:00+00:00,277.0319219164987
2025-06-23 16:00:00+00:00,195.16736515285163
2025-06-23 17:00:00+00:00,120.31619633816356
2025-06-23 19:00:00+00:00,50.28234180461345
2025-06-24 13:00:00+00:00,-88.11131553689742
2025-06-24 14:00:00+00:00,-116.28169909182519
2025-06-25 13:00:00+00:00,-90.28308390869238
2025-06-25 14:00:00+00:00,-83.40616246710934
2025-06-25 15:00:00+00:00,-50.61369118726124
2025-06-25 16:00:00+00:00,-31.222874425846353
2025-06-25 17:00:00+00:00,-46.93403928159976
2025-06-25 19:00:00+00:00,-84.43146803688805
2025-06-26 13:00:00+00:00,-131.7195141654788
2025-06-26 14:00:00+00:00,-130.09498382826013
2025-06-26 19:00:00+00:00,-58.221723290272465
2025-06-27 13:00:00+00:00,-234.36952419242118
2025-06-27 14:00:00+00:00,-251.49346521002965
2025-06-27 15:00:00+00:00,-271.7314903959825
2025-06-27 16:00:00+00:00,-255.94201099651292
2025-06-27 17:00:00+00:00,-191.05102809554882
2025-06-27 18:00:00+00:00,-191.82010507005725
2025-06-27 19:00:00+00:00,-210.9871444229757
2025-06-30 13:00:00+00:00,-188.78847347962915
2025-06-30 14:00:00+00:00,-151.82620298897382
2025-06-30 15:00:00+00:00,-109.64658785239695
2025-06-30 16:00:00+00:00,-123.41500068687631
2025-06-30 17:00:00+00:00,-112.79803806753121
2025-06-30 19:00:00+00:00,-105.74053559268408
2025-07-01 13:00:00+00:00,-115.29365204679105
2025-07-01 14:00:00+00:00,-276.2399447960678
2025-07-01 15:00:00+00:00,-328.7346136934689
2025-07-01 16:00:00+00:00,-255.3003590748392
2025-07-01 17:00:00+00:00,-239.0437555955377
2025-07-01 18:00:00+00:00,-273.7213006424126
2025-07-01 19:00:00+00:00,-260.2541398633527
2025-07-02 13:00:00+00:00,-254.43274342146435
2025-07-02 14:00:00+00:00,-385.26318957668246
2025-07-02 15:00:00+00:00,-329.5935735294166
2025-07-02 16:00:00+00:00,-315.0559886990441
2025-07-02 17:00:00+00:00,-351.93044684469726
2025-07-02 18:00:00+00:00,-321.20866103192037
2025-07-02 19:00:00+00:00,-344.77961389987155
2025-07-03 13:00:00+00:00,-325.34092360291515
2025-07-03 14:00:00+00:00,-306.0678712514532
2025-07-03 15:00:00+00:00,-327.9091146375599
2025-07-07 13:00:00+00:00,-273.5851687869184
2025-07-07 14:00:00+00:00,-231.78189148605128
2025-07-07 15:00:00+00:00,-187.16666600519682
2025-07-07 16:00:00+00:00,-191.90161578071817
2025-07-07 17:00:00+00:00,-160.43670608171587
2025-07-07 18:00:00+00:00,-151.47109411387012
2025-07-07 19:00:00+00:00,-125.7209550912647
2025-07-08 13:00:00+00:00,-307.18468335435546
2025-07-08 14:00:00+00:00,-387.7159556660987
2025-07-08 15:00:00+00:00,-417.0915789040622
2025-07-08 16:00:00+00:00,-349.3800429909179
2025-07-08 17:00:00+00:00,-389.85604932667184
2025-07-08 18:00:00+00:00,-417.74282823319976
2025-07-08 19:00:00+00:00,-391.68056322857336
2025-07-09 13:00:00+00:00,-430.79908472087453
2025-07-09 14:00:00+00:00,-352.3960181536611
2025-07-09 15:00:00+00:00,-335.10630013302426
2025-07-09 16:00:00+00:00,-360.01903738059053
2025-07-09 17:00:00+00:00,-356.2712437680842
2025-07-09 18:00:00+00:00,-375.9966161691466
2025-07-09 19:00:00+00:00,-383.6119779827184
2025-07-10 13:00:00+00:00,-538.1263906146845
2025-07-10 14:00:00+00:00,-518.8461035740484
2025-07-10 15:00:00+00:00,-476.1001633240856
2025-07-10 16:00:00+00:00,-453.10229654927844
2025-07-10 17:00:00+00:00,-451.4433765567196
2025-07-10 18:00:00+00:00,-418.16090952992283
2025-07-10 19:00:00+00:00,-392.73518484558366
2025-07-11 13:00:00+00:00,-262.28948576391997
2025-07-11 14:00:00+00:00,-216.34085438809103
2025-07-11 15:00:00+00:00,-227.51401480513053
2025-07-11 16:00:00+00:00,-251.93674380508688
2025-07-11 17:00:00+00:00,-243.89418148733517
2025-07-11 18:00:00+00:00,-257.4636106867406
2025-07-11 19:00:00+00:00,-255.18663767770477
2025-07-14 13:00:00+00:00,-97.21135316783437
2025-07-14 14:00:00+00:00,-122.44809646094629
2025-07-14 15:00:00+00:00,-98.06312929984146
2025-07-14 16:00:00+00:00,-102.40651448523465
2025-07-14 17:00:00+00:00,-114.25991778942097
2025-07-14 19:00:00+00:00,-153.12197105595283
2025-07-15 13:00:00+00:00,-275.84805250314054
2025-07-15 14:00:00+00:00,-344.811350876926
2025-07-15 15:00:00+00:00,-304.35051475877844
2025-07-15 16:00:00+00:00,-269.89156664597675
2025-07-15 17:00:00+00:00,-228.85774500765092
2025-07-15 19:00:00+00:00,-191.08105193111692
2025-07-16 13:00:00+00:00,-196.10268381074255
2025-07-16 14:00:00+00:00,-119.47849491833031
2025-07-16 15:00:00+00:00,-137.64301229628518
2025-07-16 16:00:00+00:00,-180.69014806485472
2025-07-16 17:00:00+00:00,-202.30802451646824
2025-07-16 19:00:00+00:00,-221.21136095444183
2025-07-17 13:00:00+00:00,-262.7356205136473
2025-07-17 15:00:00+00:00,-281.6813937695115
2025-07-17 16:00:00+00:00,-271.4596053730265
2025-07-17 17:00:00+00:00,-302.32930218717377
2025-07-18 13:00:00+00:00,-151.95044384502648
2025-07-18 17:00:00+00:00,-109.72919198850983
2025-07-18 19:00:00+00:00,-162.08058936262574
2025-07-21 13:00:00+00:00,-143.24477491546065
2025-07-21 14:00:00+00:00,-93.52880971152231
2025-07-21 16:00:00+00:00,-115.27028722051415
2025-07-21 19:00:00+00:00,-80.02774316712218
2025-07-22 13:00:00+00:00,1.3015547589284182
2025-07-22 14:00:00+00:00,25.05346734817332
2025-07-22 15:00:00+00:00,39.62135412918401
2025-07-22 18:00:00+00:00,-1.7792258251889237
2025-07-22 19:00:00+00:00,-41.73787261104965
2025-07-23 13:00:00+00:00,-77.93045336024568
2025-07-23 14:00:00+00:00,-45.19075797529003
2025-07-23 15:00:00+00:00,-147.86618638753177
2025-07-23 16:00:00+00:00,-155.60992762185404
2025-07-23 17:00:00+00:00,-144.02817526170276
2025-07-23 18:00:00+00:00,-136.4806205030949
2025-07-23 19:00:00+00:00,-139.82082691041958
2025-07-24 13:00:00+00:00,-177.5829688296489
2025-07-24 14:00:00+00:00,-133.38138633193253
2025-07-24 15:00:00+00:00,-79.72526557779736
2025-07-24 16:00:00+00:00,-67.51770776642547
2025-07-24 19:00:00+00:00,-26.2048174012005
2025-07-25 13:00:00+00:00,173.52240909264017
2025-07-25 14:00:00+00:00,158.2305388173322
2025-07-25 15:00:00+00:00,121.67557741678775
2025-07-25 16:00:00+00:00,129.3968131713662
2025-07-25 17:00:00+00:00,131.90003497625636
2025-07-25 18:00:00+00:00,117.76971519984397
2025-07-28 13:00:00+00:00,77.89652817707002
2025-07-28 14:00:00+00:00,89.17651073623372
2025-07-28 15:00:00+00:00,64.7613951134861
2025-07-28 16:00:00+00:00,142.38020198792424
2025-07-28 17:00:00+00:00,153.23817894878627
2025-07-28 18:00:00+00:00,153.93287534481001
2025-07-28 19:00:00+00:00,155.62087434063304
2025-07-29 13:00:00+00:00,263.5062296159361
2025-07-29 14:00:00+00:00,257.62473451767755
2025-07-29 15:00:00+00:00,256.59161997634317
2025-07-29 16:00:00+00:00,242.87616613044062
2025-07-29 17:00:00+00:00,272.9769250276151
2025-07-29 18:00:00+00:00,269.1688937012024
2025-07-29 19:00:00+00:00,282.71908828964376
2025-07-30 13:00:00+00:00,541.8455534618718
2025-07-30 14:00:00+00:00,632.9763489811713
2025-07-30 15:00:00+00:00,606.9327668747007
2025-07-30 16:00:00+00:00,536.9296439650544
2025-07-30 17:00:00+00:00,540.1413318940937
2025-07-30 18:00:00+00:00,603.6746908940727
2025-07-30 19:00:00+00:00,606.4798780942999
2025-07-31 13:00:00+00:00,605.7261669317433
2025-07-31 16:00:00+00:00,625.647100540904
2025-07-31 17:00:00+00:00,612.0446162676498
2025-07-31 18:00:00+00:00,640.4863161147321
2025-07-31 19:00:00+00:00,647.9511717158418
2025-08-01 13:00:00+00:00,791.275579671471
2025-08-01 14:00:00+00:00,781.1265810287455
2025-08-01 15:00:00+00:00,733.758761148876
2025-08-01 16:00:00+00:00,760.6925649614286
2025-08-01 17:00:00+00:00,746.0796106841167
2025-08-04 13:00:00+00:00,797.5424980961321
2025-08-04 14:00:00+00:00,786.0586591472355
2025-08-04 15:00:00+00:00,820.7385490245975
2025-08-04 17:00:00+00:00,853.7452371205129
2025-08-04 18:00:00+00:00,842.9724242779325
2025-08-04 19:00:00+00:00,853.2270447305035
2025-08-05 13:00:00+00:00,882.9725507991956
2025-08-05 14:00:00+00:00,851.5461879890041
2025-08-05 16:00:00+00:00,826.4299415042464
2025-08-05 17:00:00+00:00,869.5450674214646
2025-08-05 19:00:00+00:00,876.8891694796936
2025-08-06 13:00:00+00:00,1010.3058712491852
2025-08-06 15:00:00+00:00,967.0706360915282
2025-08-06 19:00:00+00:00,930.2590674076795
2025-08-07 13:00:00+00:00,887.5821212620156
2025-08-07 14:00:00+00:00,950.5726080471891
2025-08-07 15:00:00+00:00,928.540478432018
2025-08-07 16:00:00+00:00,955.3535162010307
2025-08-07 17:00:00+00:00,923.6619665174803
2025-08-07 18:00:00+00:00,960.3301371211694
2025-08-07 19:00:00+00:00,961.8226108069331
2025-08-08 13:00:00+00:00,995.6791678825192
2025-08-08 14:00:00+00:00,955.8661249497702
2025-08-08 16:00:00+00:00,920.6532260439144
2025-08-08 17:00:00+00:00,891.3447629409059
2025-08-08 18:00:00+00:00,880.2151475366693
2025-08-08 19:00:00+00:00,905.0449900323919
2025-08-11 13:00:00+00:00,904.5171545292347
2025-08-11 14:00:00+00:00,910.345886233262
2025-08-11 15:00:00+00:00,908.0235676128552
2025-08-11 18:00:00+00:00,914.5456212073374
2025-08-11 19:00:00+00:00,926.0368654384333
2025-08-12 13:00:00+00:00,751.3678841540795
2025-08-12 14:00:00+00:00,755.6584619090897
2025-08-12 15:00:00+00:00,746.6249988501279
2025-08-12 16:00:00+00:00,795.0480600630472
2025-08-12 17:00:00+00:00,765.8075430725355
2025-08-12 18:00:00+00:00,777.8111179373024
2025-08-13 13:00:00+00:00,678.461421002453
2025-08-13 14:00:00+00:00,579.5035157875693
2025-08-13 15:00:00+00:00,609.6117615050791
2025-08-13 16:00:00+00:00,613.1934874988254
2025-08-13 18:00:00+00:00,546.8167353550425
2025-08-13 19:00:00+00:00,498.3860042281038
2025-08-14 13:00:00+00:00,622.7167632110505
2025-08-14 14:00:00+00:00,588.0617236439194
2025-08-14 15:00:00+00:00,612.0824246011474
2025-08-14 16:00:00+00:00,598.9576284332916
2025-08-14 18:00:00+00:00,555.5812258118096
2025-08-15 13:00:00+00:00,533.7799068914053
2025-08-15 14:00:00+00:00,605.2234919170721
2025-08-15 16:00:00+00:00,608.608999899617
2025-08-15 17:00:00+00:00,607.5295398173017
2025-08-15 18:00:00+00:00,588.6428087513858
2025-08-18 13:00:00+00:00,630.7924881246968
2025-08-18 14:00:00+00:00,610.9763294795104
2025-08-18 15:00:00+00:00,602.8885310032333
2025-08-18 16:00:00+00:00,594.5389178371106
2025-08-18 18:00:00+00:00,618.9315279801144
2025-08-18 19:00:00+00:00,632.2401904814714
2025-08-19 13:00:00+00:00,408.8079766452855
2025-08-19 14:00:00+00:00,398.1910580620874
2025-08-19 15:00:00+00:00,431.7602637298047
2025-08-19 17:00:00+00:00,447.2784268371178
2025-08-19 18:00:00+00:00,419.3639372255777
2025-08-19 19:00:00+00:00,421.5960823688126
2025-08-20 13:00:00+00:00,527.5512963807892
2025-08-20 15:00:00+00:00,528.3509659216661
2025-08-20 16:00:00+00:00,538.6810633432225
2025-08-20 17:00:00+00:00,541.2218783247381
2025-08-21 13:00:00+00:00,674.7071955104915
2025-08-21 14:00:00+00:00,663.5097730512929
2025-08-21 18:00:00+00:00,648.6482475920685
2025-08-21 19:00:00+00:00,648.7684833893803
2025-08-22 13:00:00+00:00,456.3925506677839
2025-08-22 14:00:00+00:00,446.9851242082926
2025-08-22 15:00:00+00:00,451.2151736336661
2025-08-22 16:00:00+00:00,479.2346722880996
2025-08-22 18:00:00+00:00,496.7884719117155
2025-08-22 19:00:00+00:00,499.54778325434177
2025-08-25 13:00:00+00:00,626.1561280132765
2025-08-25 14:00:00+00:00,625.8246745801823
2025-08-25 15:00:00+00:00,634.3520502396653
2025-08-25 17:00:00+00:00,673.1542444803245
2025-08-26 13:00:00+00:00,680.714073163717
2025-08-26 14:00:00+00:00,679.0661490512671
2025-08-26 18:00:00+00:00,708.8805604962187
2025-08-26 19:00:00+00:00,699.6209311621267
2025-08-27 13:00:00+00:00,698.4894169994594
2025-08-27 14:00:00+00:00,701.6418586695781
2025-08-27 15:00:00+00:00,686.176515493308
2025-08-27 16:00:00+00:00,698.0527023923088
2025-08-27 17:00:00+00:00,736.1304519299151
2025-08-27 18:00:00+00:00,714.6864961047706
2025-08-27 19:00:00+00:00,728.1075979325449
2025-08-28 14:00:00+00:00,809.0415881297795
2025-08-28 18:00:00+00:00,805.6815329050308
2025-08-28 19:00:00+00:00,821.0490067061972
2025-08-29 15:00:00+00:00,896.2100833937322
2025-08-29 16:00:00+00:00,882.0250492538664
2025-08-29 19:00:00+00:00,891.3090785001137
2025-09-02 13:00:00+00:00,1072.8478415582606
2025-09-02 14:00:00+00:00,1123.2768941399436
2025-09-02 15:00:00+00:00,1150.6030709039242
2025-09-02 18:00:00+00:00,1067.3585238170826
2025-09-02 19:00:00+00:00,1075.5925954502345
2025-09-03 13:00:00+00:00,1132.385582036729
2025-09-03 15:00:00+00:00,1142.8215974354428
2025-09-03 16:00:00+00:00,1115.6158080269697
2025-09-03 17:00:00+00:00,1106.7634877829905
2025-09-04 13:00:00+00:00,1038.5773149857662
2025-09-04 14:00:00+00:00,1012.487673928011
2025-09-04 18:00:00+00:00,1044.496498282036
2025-09-05 13:00:00+00:00,1046.5854228872179
2025-09-05 14:00:00+00:00,1083.917648921859
2025-09-05 15:00:00+00:00,1134.452240792667
2025-09-05 16:00:00+00:00,1140.0917300944238
2025-09-05 17:00:00+00:00,1119.015768033361
2025-09-05 18:00:00+00:00,1087.0366650542437
2025-09-08 13:00:00+00:00,1111.5141820584975
2025-09-08 14:00:00+00:00,1064.1314135392774
2025-09-08 15:00:00+00:00,1077.975581457813
2025-09-08 18:00:00+00:00,990.9913153444282
2025-09-08 19:00:00+00:00,938.9788582237422
2025-09-09 13:00:00+00:00,1102.6547346473878
2025-09-09 14:00:00+00:00,1106.296319667006
2025-09-09 15:00:00+00:00,1116.2944334092363
2025-09-09 17:00:00+00:00,1078.21668387163
2025-09-09 18:00:00+00:00,1109.8782977919127
2025-09-09 19:00:00+00:00,1094.277378990289
2025-09-10 13:00:00+00:00,1210.9101789726324
2025-09-10 14:00:00+00:00,1218.872504640364
2025-09-10 15:00:00+00:00,1227.016137181938
2025-09-10 17:00:00+00:00,1263.4956341141578
2025-09-11 13:00:00+00:00,1096.4566720569576
2025-09-11 14:00:00+00:00,1079.7405088973333
2025-09-11 18:00:00+00:00,1126.0683776844703
2025-09-11 19:00:00+00:00,1121.302835342582
2025-09-12 13:00:00+00:00,1179.9055318007445
2025-09-12 14:00:00+00:00,1170.2239974413146
2025-09-12 15:00:00+00:00,1154.4492145500335
2025-09-12 16:00:00+00:00,1125.4647870972608
2025-09-12 17:00:00+00:00,1144.4814152591052
2025-09-12 18:00:00+00:00,1162.1252877869276
2025-09-12 19:00:00+00:00,1175.5320717945485
2025-09-15 13:00:00+00:00,1104.6463461076073
2025-09-15 14:00:00+00:00,1222.922119039095
2025-09-15 17:00:00+00:00,1202.2845937345855
2025-09-15 18:00:00+00:00,1243.8460993178708
2025-09-15 19:00:00+00:00,1264.129287021508
2025-09-16 13:00:00+00:00,1286.7350329760493
2025-09-16 18:00:00+00:00,1347.7660170170102
2025-09-17 13:00:00+00:00,1227.8518766726866
2025-09-17 16:00:00+00:00,1218.9933216691388
2025-09-17 17:00:00+00:00,1174.5818520050595
2025-09-17 18:00:00+00:00,1347.3732653775492
2025-09-17 19:00:00+00:00,1322.3243962744868
2025-09-18 13:00:00+00:00,1173.2989282472456
2025-09-18 14:00:00+00:00,1262.0705378100904
2025-09-18 16:00:00+00:00,1245.5160400274192
2025-09-18 18:00:00+00:00,1240.9052154869962
2025-09-19 13:00:00+00:00,1377.7007152445067
2025-09-19 15:00:00+00:00,1448.4132336448947
2025-09-19 17:00:00+00:00,1439.998297311831
2025-09-19 19:00:00+00:00,1386.915750791714
2025-09-22 13:00:00+00:00,1476.878064239335
2025-09-22 14:00:00+00:00,1494.8990704635069
2025-09-22 15:00:00+00:00,1465.876910776571
2025-09-22 18:00:00+00:00,1473.5159210830668
2025-09-22 19:00:00+00:00,1486.7489800585693
2025-09-23 13:00:00+00:00,1623.3926915328998
2025-09-23 14:00:00+00:00,1656.0875590520507
2025-09-23 15:00:00+00:00,1748.1988447759911
2025-09-23 19:00:00+00:00,1757.2014371535124
2025-09-24 15:00:00+00:00,1722.486108887243
2025-09-24 17:00:00+00:00,1767.3356317660025
2025-09-24 18:00:00+00:00,1734.2865532028516
2025-09-24 19:00:00+00:00,1744.261770276643
2025-09-25 13:00:00+00:00,1777.9592988282961
2025-09-25 15:00:00+00:00,1774.882851872729
2025-09-25 17:00:00+00:00,1851.2880581939526
2025-09-25 18:00:00+00:00,1855.6688094261367
2025-09-26 13:00:00+00:00,1919.9951279724678
2025-09-26 14:00:00+00:00,1935.015151709394
2025-09-26 17:00:00+00:00,1895.9566283004997
2025-09-26 18:00:00+00:00,1916.3905053102826
2025-09-26 19:00:00+00:00,1962.099935443827
2025-09-29 13:00:00+00:00,1922.0006896679658
2025-09-29 14:00:00+00:00,1864.121907666628
2025-09-29 16:00:00+00:00,1867.4766715246062
2025-09-29 17:00:00+00:00,1876.578219753599
2025-09-29 18:00:00+00:00,1882.8061734611128
2025-09-29 19:00:00+00:00,1903.059564459018
2025-09-30 13:00:00+00:00,1871.5714359403557
2025-09-30 14:00:00+00:00,1844.0194456053687
2025-09-30 15:00:00+00:00,1844.0194456053687
2025-09-30 16:00:00+00:00,1844.0194456053687
2025-09-30 18:00:00+00:00,1844.0194456053687
2025-09-30 19:00:00+00:00,1844.0194456053687
2025-10-01 13:00:00+00:00,1844.0194456053687
2025-10-01 14:00:00+00:00,1844.0194456053687
2025-10-01 16:00:00+00:00,1844.0194456053687
2025-10-01 19:00:00+00:00,1844.0194456053687
2025-10-02 13:00:00+00:00,1844.0194456053687
2025-10-02 14:00:00+00:00,1844.0194456053687
2025-10-02 15:00:00+00:00,1844.0194456053687
2025-10-02 16:00:00+00:00,1844.0194456053687
2025-10-02 17:00:00+00:00,1844.0194456053687
2025-10-02 18:00:00+00:00,1844.0194456053687
2025-10-02 19:00:00+00:00,1844.0194456053687
2025-10-03 13:00:00+00:00,1844.0194456053687
2025-10-03 14:00:00+00:00,1844.0194456053687
2025-10-03 15:00:00+00:00,1844.0194456053687
2025-10-03 16:00:00+00:00,1844.0194456053687
2025-10-03 17:00:00+00:00,1844.0194456053687
2025-10-03 19:00:00+00:00,1844.0194456053687
2025-10-06 13:00:00+00:00,1844.0194456053687
2025-10-06 14:00:00+00:00,1844.0194456053687
2025-10-06 15:00:00+00:00,1844.0194456053687
2025-10-06 16:00:00+00:00,1844.0194456053687
2025-10-06 17:00:00+00:00,1844.0194456053687
2025-10-06 18:00:00+00:00,1844.0194456053687
2025-10-06 19:00:00+00:00,1844.0194456053687
2025-10-07 13:00:00+00:00,1844.0194456053687
2025-10-07 14:00:00+00:00,1844.0194456053687
2025-10-07 15:00:00+00:00,1844.0194456053687
2025-10-07 16:00:00+00:00,1844.0194456053687
2025-10-07 17:00:00+00:00,1844.0194456053687
2025-10-07 18:00:00+00:00,1844.0194456053687
2025-10-07 19:00:00+00:00,1844.0194456053687
2025-10-08 13:00:00+00:00,1844.0194456053687
2025-10-08 14:00:00+00:00,1844.0194456053687
2025-10-08 15:00:00+00:00,1844.0194456053687
2025-10-08 18:00:00+00:00,1844.0194456053687
2025-10-08 19:00:00+00:00,1844.0194456053687
2025-10-09 13:00:00+00:00,1844.0194456053687
2025-10-09 14:00:00+00:00,1844.0194456053687
2025-10-09 15:00:00+00:00,1844.0194456053687
2025-10-09 18:00:00+00:00,1844.0194456053687
2025-10-10 13:00:00+00:00,1844.0194456053687
2025-10-10 14:00:00+00:00,1844.0194456053687
2025-10-10 15:00:00+00:00,1844.0194456053687
2025-10-10 16:00:00+00:00,1844.0194456053687
2025-10-10 18:00:00+00:00,1844.0194456053687
2025-10-13 13:00:00+00:00,1844.0194456053687
2025-10-13 14:00:00+00:00,1844.0194456053687
2025-10-13 15:00:00+00:00,1844.0194456053687
2025-10-13 16:00:00+00:00,1844.0194456053687
2025-10-13 18:00:00+00:00,1844.0194456053687
2025-10-13 19:00:00+00:00,1844.0194456053687
2025-10-14 13:00:00+00:00,1844.0194456053687
2025-10-14 14:00:00+00:00,1844.0194456053687
2025-10-14 16:00:00+00:00,1844.0194456053687
2025-10-14 17:00:00+00:00,1844.0194456053687
2025-10-14 18:00:00+00:00,1844.0194456053687
2025-10-14 19:00:00+00:00,1844.0194456053687
2025-10-15 13:00:00+00:00,1844.0194456053687
2025-10-15 14:00:00+00:00,1844.0194456053687
2025-10-15 15:00:00+00:00,1844.0194456053687
2025-10-15 18:00:00+00:00,1844.0194456053687
2025-10-15 19:00:00+00:00,1844.0194456053687
2025-10-16 13:00:00+00:00,1844.0194456053687
2025-10-16 14:00:00+00:00,1844.0194456053687
2025-10-16 15:00:00+00:00,1844.0194456053687
2025-10-16 16:00:00+00:00,1844.0194456053687
2025-10-16 17:00:00+00:00,1844.0194456053687
2025-10-16 18:00:00+00:00,1844.0194456053687
2025-10-16 19:00:00+00:00,1844.0194456053687
2025-10-17 13:00:00+00:00,1844.0194456053687
2025-10-17 14:00:00+00:00,1844.0194456053687
2025-10-17 15:00:00+00:00,1844.0194456053687
2025-10-17 17:00:00+00:00,1844.0194456053687
2025-10-17 18:00:00+00:00,1844.0194456053687
2025-10-20 13:00:00+00:00,1844.0194456053687
2025-10-20 14:00:00+00:00,1844.0194456053687
2025-10-20 17:00:00+00:00,1844.0194456053687
2025-10-20 18:00:00+00:00,1844.0194456053687
2025-10-21 13:00:00+00:00,1844.0194456053687
2025-10-21 14:00:00+00:00,1844.0194456053687
2025-10-21 16:00:00+00:00,1844.0194456053687
2025-10-21 17:00:00+00:00,1844.0194456053687
2025-10-21 18:00:00+00:00,1844.0194456053687
2025-10-21 19:00:00+00:00,1844.0194456053687
2025-10-22 13:00:00+00:00,1844.0194456053687
2025-10-22 14:00:00+00:00,1844.0194456053687
2025-10-22 16:00:00+00:00,1844.0194456053687
2025-10-22 17:00:00+00:00,1844.0194456053687
2025-10-22 18:00:00+00:00,1844.0194456053687
2025-10-22 19:00:00+00:00,1844.0194456053687
