Date,0
2024-01-02 14:00:00+00:00,0.0
2024-01-02 15:00:00+00:00,0.0
2024-01-02 16:00:00+00:00,0.0
2024-01-02 17:00:00+00:00,0.0
2024-01-02 18:00:00+00:00,0.0
2024-01-02 19:00:00+00:00,0.0
2024-01-02 20:00:00+00:00,0.0
2024-01-03 14:00:00+00:00,0.0
2024-01-03 15:00:00+00:00,0.0
2024-01-03 16:00:00+00:00,0.0
2024-01-03 17:00:00+00:00,0.0
2024-01-03 18:00:00+00:00,0.0
2024-01-03 19:00:00+00:00,0.0
2024-01-03 20:00:00+00:00,0.0
2024-01-04 14:00:00+00:00,0.0
2024-01-04 15:00:00+00:00,0.0
2024-01-04 16:00:00+00:00,0.0
2024-01-04 17:00:00+00:00,0.0
2024-01-04 18:00:00+00:00,0.0
2024-01-04 19:00:00+00:00,0.0
2024-01-04 20:00:00+00:00,0.0
2024-01-05 14:00:00+00:00,0.0
2024-01-05 15:00:00+00:00,0.0
2024-01-05 16:00:00+00:00,0.0
2024-01-05 17:00:00+00:00,0.0
2024-01-05 18:00:00+00:00,0.0
2024-01-05 19:00:00+00:00,0.0
2024-01-05 20:00:00+00:00,0.0
2024-01-08 14:00:00+00:00,0.0
2024-01-08 15:00:00+00:00,0.0
2024-01-08 16:00:00+00:00,0.0
2024-01-08 17:00:00+00:00,0.0
2024-01-08 18:00:00+00:00,0.0
2024-01-08 19:00:00+00:00,0.0
2024-01-08 20:00:00+00:00,0.0
2024-01-09 14:00:00+00:00,0.0
2024-01-09 15:00:00+00:00,0.0
2024-01-09 16:00:00+00:00,0.0
2024-01-09 17:00:00+00:00,0.0
2024-01-09 18:00:00+00:00,0.0
2024-01-09 19:00:00+00:00,0.0
2024-01-09 20:00:00+00:00,0.0
2024-01-10 14:00:00+00:00,0.0
2024-01-10 15:00:00+00:00,0.0
2024-01-10 16:00:00+00:00,0.0
2024-01-10 17:00:00+00:00,0.0
2024-01-10 18:00:00+00:00,0.0
2024-01-10 19:00:00+00:00,0.0
2024-01-10 20:00:00+00:00,0.0
2024-01-11 14:00:00+00:00,0.0
2024-01-11 15:00:00+00:00,0.0
2024-01-11 16:00:00+00:00,0.0
2024-01-11 17:00:00+00:00,0.0
2024-01-11 18:00:00+00:00,0.0
2024-01-11 19:00:00+00:00,0.0
2024-01-11 20:00:00+00:00,0.0
2024-01-12 14:00:00+00:00,0.0
2024-01-12 15:00:00+00:00,0.0
2024-01-12 16:00:00+00:00,0.0
2024-01-12 17:00:00+00:00,0.0
2024-01-12 18:00:00+00:00,0.0
2024-01-12 19:00:00+00:00,0.0
2024-01-12 20:00:00+00:00,0.0
2024-01-16 14:00:00+00:00,0.0
2024-01-16 15:00:00+00:00,0.0
2024-01-16 16:00:00+00:00,0.0
2024-01-16 17:00:00+00:00,0.0
2024-01-16 18:00:00+00:00,0.0
2024-01-16 19:00:00+00:00,0.0
2024-01-16 20:00:00+00:00,0.0
2024-01-17 14:00:00+00:00,0.0
2024-01-17 15:00:00+00:00,0.0
2024-01-17 16:00:00+00:00,0.0
2024-01-17 17:00:00+00:00,0.0
2024-01-17 18:00:00+00:00,0.0
2024-01-17 19:00:00+00:00,0.0
2024-01-17 20:00:00+00:00,0.0
2024-01-18 14:00:00+00:00,0.0
2024-01-18 15:00:00+00:00,0.0
2024-01-18 16:00:00+00:00,0.0
2024-01-18 17:00:00+00:00,0.0
2024-01-18 18:00:00+00:00,0.0
2024-01-18 19:00:00+00:00,0.0
2024-01-18 20:00:00+00:00,0.0
2024-01-19 14:00:00+00:00,0.0
2024-01-19 15:00:00+00:00,0.0
2024-01-19 16:00:00+00:00,0.0
2024-01-19 17:00:00+00:00,0.0
2024-01-19 18:00:00+00:00,0.0
2024-01-19 19:00:00+00:00,0.0
2024-01-19 20:00:00+00:00,0.0
2024-01-22 14:00:00+00:00,0.0
2024-01-22 15:00:00+00:00,0.0
2024-01-22 16:00:00+00:00,0.0
2024-01-22 17:00:00+00:00,0.0
2024-01-22 18:00:00+00:00,0.0
2024-01-22 19:00:00+00:00,0.0
2024-01-22 20:00:00+00:00,0.0
2024-01-23 14:00:00+00:00,0.0
2024-01-23 15:00:00+00:00,0.0
2024-01-23 16:00:00+00:00,0.0
2024-01-23 17:00:00+00:00,0.0
2024-01-23 18:00:00+00:00,0.0
2024-01-23 19:00:00+00:00,0.0
2024-01-23 20:00:00+00:00,0.0
2024-01-24 14:00:00+00:00,0.0
2024-01-24 15:00:00+00:00,0.0
2024-01-24 16:00:00+00:00,0.0
2024-01-24 17:00:00+00:00,0.0
2024-01-24 18:00:00+00:00,0.0
2024-01-24 19:00:00+00:00,0.0
2024-01-24 20:00:00+00:00,0.0
2024-01-25 14:00:00+00:00,0.0
2024-01-25 15:00:00+00:00,0.0
2024-01-25 16:00:00+00:00,0.0
2024-01-25 17:00:00+00:00,0.0
2024-01-25 18:00:00+00:00,0.0
2024-01-25 19:00:00+00:00,0.0
2024-01-25 20:00:00+00:00,0.0
2024-01-26 14:00:00+00:00,0.0
2024-01-26 15:00:00+00:00,0.0
2024-01-26 16:00:00+00:00,0.0
2024-01-26 17:00:00+00:00,0.0
2024-01-26 18:00:00+00:00,0.0
2024-01-26 19:00:00+00:00,0.0
2024-01-26 20:00:00+00:00,0.0
2024-01-29 14:00:00+00:00,0.0
2024-01-29 15:00:00+00:00,0.0
2024-01-29 16:00:00+00:00,0.0
2024-01-29 17:00:00+00:00,0.0
2024-01-29 18:00:00+00:00,0.0
2024-01-29 19:00:00+00:00,0.0
2024-01-29 20:00:00+00:00,0.0
2024-01-30 14:00:00+00:00,0.0
2024-01-30 15:00:00+00:00,0.0
2024-01-30 16:00:00+00:00,0.0
2024-01-30 17:00:00+00:00,0.0
2024-01-30 18:00:00+00:00,0.0
2024-01-30 19:00:00+00:00,0.0
2024-01-30 20:00:00+00:00,0.0
2024-01-31 14:00:00+00:00,0.0
2024-01-31 15:00:00+00:00,0.0
2024-01-31 16:00:00+00:00,0.0
2024-01-31 17:00:00+00:00,0.0
2024-01-31 18:00:00+00:00,0.0
2024-01-31 19:00:00+00:00,0.0
2024-01-31 20:00:00+00:00,0.0
2024-02-01 14:00:00+00:00,0.0
2024-02-01 15:00:00+00:00,0.0
2024-02-01 16:00:00+00:00,0.0
2024-02-01 17:00:00+00:00,0.0
2024-02-01 18:00:00+00:00,0.0
2024-02-01 19:00:00+00:00,0.0
2024-02-01 20:00:00+00:00,0.0
2024-02-02 14:00:00+00:00,0.0
2024-02-02 15:00:00+00:00,0.0
2024-02-02 16:00:00+00:00,0.0
2024-02-02 17:00:00+00:00,0.0
2024-02-02 18:00:00+00:00,0.0
2024-02-02 19:00:00+00:00,0.0
2024-02-02 20:00:00+00:00,0.0
2024-02-05 14:00:00+00:00,0.0
2024-02-05 15:00:00+00:00,0.0
2024-02-05 16:00:00+00:00,0.0
2024-02-05 17:00:00+00:00,0.0
2024-02-05 18:00:00+00:00,0.0
2024-02-05 19:00:00+00:00,0.0
2024-02-05 20:00:00+00:00,0.0
2024-02-06 14:00:00+00:00,0.0
2024-02-06 15:00:00+00:00,0.0
2024-02-06 16:00:00+00:00,0.0
2024-02-06 17:00:00+00:00,0.0
2024-02-06 18:00:00+00:00,0.0
2024-02-06 19:00:00+00:00,0.0
2024-02-06 20:00:00+00:00,0.0
2024-02-07 14:00:00+00:00,0.0
2024-02-07 15:00:00+00:00,0.0
2024-02-07 16:00:00+00:00,0.0
2024-02-07 17:00:00+00:00,0.0
2024-02-07 18:00:00+00:00,0.0
2024-02-07 19:00:00+00:00,0.0
2024-02-07 20:00:00+00:00,0.0
2024-02-08 14:00:00+00:00,0.0
2024-02-08 15:00:00+00:00,0.0
2024-02-08 16:00:00+00:00,0.0
2024-02-08 17:00:00+00:00,0.0
2024-02-08 18:00:00+00:00,0.0
2024-02-08 19:00:00+00:00,0.0
2024-02-08 20:00:00+00:00,0.0
2024-02-09 14:00:00+00:00,0.0
2024-02-09 15:00:00+00:00,0.0
2024-02-09 16:00:00+00:00,0.0
2024-02-09 17:00:00+00:00,0.0
2024-02-09 18:00:00+00:00,0.0
2024-02-09 19:00:00+00:00,0.0
2024-02-09 20:00:00+00:00,0.0
2024-02-12 14:00:00+00:00,0.0
2024-02-12 15:00:00+00:00,0.0
2024-02-12 16:00:00+00:00,0.0
2024-02-12 17:00:00+00:00,0.0
2024-02-12 18:00:00+00:00,0.0
2024-02-12 19:00:00+00:00,0.0
2024-02-12 20:00:00+00:00,0.0
2024-02-13 14:00:00+00:00,0.0
2024-02-13 15:00:00+00:00,0.0
2024-02-13 16:00:00+00:00,0.0
2024-02-13 17:00:00+00:00,0.0
2024-02-13 18:00:00+00:00,0.0
2024-02-13 19:00:00+00:00,0.0
2024-02-13 20:00:00+00:00,0.0
2024-02-14 14:00:00+00:00,0.0
2024-02-14 15:00:00+00:00,0.0
2024-02-14 16:00:00+00:00,0.0
2024-02-14 17:00:00+00:00,0.0
2024-02-14 18:00:00+00:00,0.0
2024-02-14 19:00:00+00:00,0.0
2024-02-14 20:00:00+00:00,0.0
2024-02-15 14:00:00+00:00,0.0
2024-02-15 15:00:00+00:00,0.0
2024-02-15 16:00:00+00:00,0.0
2024-02-15 17:00:00+00:00,0.0
2024-02-15 18:00:00+00:00,0.0
2024-02-15 19:00:00+00:00,0.0
2024-02-15 20:00:00+00:00,0.0
2024-02-16 14:00:00+00:00,0.0
2024-02-16 15:00:00+00:00,0.0
2024-02-16 16:00:00+00:00,0.0
2024-02-16 17:00:00+00:00,0.0
2024-02-16 18:00:00+00:00,0.0
2024-02-16 19:00:00+00:00,0.0
2024-02-16 20:00:00+00:00,0.0
2024-02-20 14:00:00+00:00,0.0
2024-02-20 15:00:00+00:00,0.0
2024-02-20 16:00:00+00:00,0.0
2024-02-20 17:00:00+00:00,0.0
2024-02-20 18:00:00+00:00,0.0
2024-02-20 19:00:00+00:00,0.0
2024-02-20 20:00:00+00:00,0.0
2024-02-21 14:00:00+00:00,0.0
2024-02-21 15:00:00+00:00,0.0
2024-02-21 16:00:00+00:00,0.0
2024-02-21 17:00:00+00:00,0.0
2024-02-21 18:00:00+00:00,0.0
2024-02-21 19:00:00+00:00,0.0
2024-02-21 20:00:00+00:00,0.0
2024-02-22 14:00:00+00:00,0.0
2024-02-22 15:00:00+00:00,0.0
2024-02-22 16:00:00+00:00,0.0
2024-02-22 17:00:00+00:00,0.0
2024-02-22 18:00:00+00:00,0.0
2024-02-22 19:00:00+00:00,0.0
2024-02-22 20:00:00+00:00,0.0
2024-02-23 14:00:00+00:00,0.0
2024-02-23 15:00:00+00:00,0.0
2024-02-23 16:00:00+00:00,0.0
2024-02-23 17:00:00+00:00,0.0
2024-02-23 18:00:00+00:00,0.0
2024-02-23 19:00:00+00:00,0.0
2024-02-23 20:00:00+00:00,0.0
2024-02-26 14:00:00+00:00,0.0
2024-02-26 15:00:00+00:00,0.0
2024-02-26 16:00:00+00:00,0.0
2024-02-26 17:00:00+00:00,0.0
2024-02-26 18:00:00+00:00,0.0
2024-02-26 19:00:00+00:00,0.0
2024-02-26 20:00:00+00:00,0.0
2024-02-27 14:00:00+00:00,0.0
2024-02-27 15:00:00+00:00,0.0
2024-02-27 16:00:00+00:00,0.0
2024-02-27 17:00:00+00:00,0.0
2024-02-27 18:00:00+00:00,0.0
2024-02-27 19:00:00+00:00,0.0
2024-02-27 20:00:00+00:00,0.0
2024-02-28 14:00:00+00:00,0.0
2024-02-28 15:00:00+00:00,0.0
2024-02-28 16:00:00+00:00,0.0
2024-02-28 17:00:00+00:00,0.0
2024-02-28 18:00:00+00:00,0.0
2024-02-28 19:00:00+00:00,0.0
2024-02-28 20:00:00+00:00,0.0
2024-02-29 14:00:00+00:00,0.0
2024-02-29 15:00:00+00:00,0.0
2024-02-29 16:00:00+00:00,0.0
2024-02-29 17:00:00+00:00,0.0
2024-02-29 18:00:00+00:00,0.0
2024-02-29 19:00:00+00:00,0.0
2024-02-29 20:00:00+00:00,0.0
2024-03-01 14:00:00+00:00,0.0
2024-03-01 15:00:00+00:00,0.0
2024-03-01 16:00:00+00:00,0.0
2024-03-01 17:00:00+00:00,0.0
2024-03-01 18:00:00+00:00,0.0
2024-03-01 19:00:00+00:00,0.0
2024-03-01 20:00:00+00:00,0.0
2024-03-04 14:00:00+00:00,0.0
2024-03-04 15:00:00+00:00,0.0
2024-03-04 16:00:00+00:00,0.0
2024-03-04 17:00:00+00:00,0.0
2024-03-04 18:00:00+00:00,0.0
2024-03-04 19:00:00+00:00,0.0
2024-03-04 20:00:00+00:00,0.0
2024-03-05 14:00:00+00:00,0.0
2024-03-05 15:00:00+00:00,0.0
2024-03-05 16:00:00+00:00,0.0
2024-03-05 17:00:00+00:00,0.0
2024-03-05 18:00:00+00:00,0.0
2024-03-05 19:00:00+00:00,0.0
2024-03-05 20:00:00+00:00,0.0
2024-03-06 14:00:00+00:00,0.0
2024-03-06 15:00:00+00:00,0.0
2024-03-06 16:00:00+00:00,0.0
2024-03-06 17:00:00+00:00,0.0
2024-03-06 18:00:00+00:00,0.0
2024-03-06 19:00:00+00:00,0.0
2024-03-06 20:00:00+00:00,0.0
2024-03-07 14:00:00+00:00,0.0
2024-03-07 15:00:00+00:00,0.0
2024-03-07 16:00:00+00:00,0.0
2024-03-07 17:00:00+00:00,0.0
2024-03-07 18:00:00+00:00,0.0
2024-03-07 19:00:00+00:00,0.0
2024-03-07 20:00:00+00:00,0.0
2024-03-08 14:00:00+00:00,0.0
2024-03-08 15:00:00+00:00,0.0
2024-03-08 16:00:00+00:00,0.0
2024-03-08 17:00:00+00:00,0.0
2024-03-08 18:00:00+00:00,0.0
2024-03-08 19:00:00+00:00,0.0
2024-03-08 20:00:00+00:00,0.0
2024-03-11 13:00:00+00:00,0.0
2024-03-11 14:00:00+00:00,0.0
2024-03-11 15:00:00+00:00,0.0
2024-03-11 16:00:00+00:00,0.0
2024-03-11 17:00:00+00:00,0.0
2024-03-11 18:00:00+00:00,0.0
2024-03-11 19:00:00+00:00,0.0
2024-03-12 13:00:00+00:00,0.0
2024-03-12 14:00:00+00:00,0.0
2024-03-12 15:00:00+00:00,0.0
2024-03-12 16:00:00+00:00,0.0
2024-03-12 17:00:00+00:00,0.0
2024-03-12 18:00:00+00:00,0.0
2024-03-12 19:00:00+00:00,0.0
2024-03-13 13:00:00+00:00,0.0
2024-03-13 14:00:00+00:00,0.0
2024-03-13 15:00:00+00:00,0.0
2024-03-13 16:00:00+00:00,0.0
2024-03-13 17:00:00+00:00,0.0
2024-03-13 18:00:00+00:00,0.0
2024-03-13 19:00:00+00:00,0.0
2024-03-14 13:00:00+00:00,0.0
2024-03-14 14:00:00+00:00,0.0
2024-03-14 15:00:00+00:00,0.0
2024-03-14 16:00:00+00:00,0.0
2024-03-14 17:00:00+00:00,0.0
2024-03-14 18:00:00+00:00,0.0
2024-03-14 19:00:00+00:00,0.0
2024-03-15 13:00:00+00:00,0.0
2024-03-15 14:00:00+00:00,0.0
2024-03-15 15:00:00+00:00,0.0
2024-03-15 16:00:00+00:00,0.0
2024-03-15 17:00:00+00:00,0.0
2024-03-15 18:00:00+00:00,0.0
2024-03-15 19:00:00+00:00,0.0
2024-03-18 13:00:00+00:00,0.0
2024-03-18 14:00:00+00:00,0.0
2024-03-18 15:00:00+00:00,0.0
2024-03-18 16:00:00+00:00,0.0
2024-03-18 17:00:00+00:00,0.0
2024-03-18 18:00:00+00:00,0.0
2024-03-18 19:00:00+00:00,0.0
2024-03-19 13:00:00+00:00,0.0
2024-03-19 14:00:00+00:00,0.0
2024-03-19 15:00:00+00:00,0.0
2024-03-19 16:00:00+00:00,0.0
2024-03-19 17:00:00+00:00,0.0
2024-03-19 18:00:00+00:00,0.0
2024-03-19 19:00:00+00:00,0.0
2024-03-20 13:00:00+00:00,0.0
2024-03-20 14:00:00+00:00,0.0
2024-03-20 15:00:00+00:00,0.0
2024-03-20 16:00:00+00:00,0.0
2024-03-20 17:00:00+00:00,0.0
2024-03-20 18:00:00+00:00,0.0
2024-03-20 19:00:00+00:00,0.0
2024-03-21 13:00:00+00:00,0.0
2024-03-21 14:00:00+00:00,0.0
2024-03-21 15:00:00+00:00,0.0
2024-03-21 16:00:00+00:00,0.0
2024-03-21 17:00:00+00:00,0.0
2024-03-21 18:00:00+00:00,0.0
2024-03-21 19:00:00+00:00,0.0
2024-03-22 13:00:00+00:00,0.0
2024-03-22 14:00:00+00:00,0.0
2024-03-22 15:00:00+00:00,0.0
2024-03-22 16:00:00+00:00,0.0
2024-03-22 17:00:00+00:00,0.0
2024-03-22 18:00:00+00:00,0.0
2024-03-22 19:00:00+00:00,0.0
2024-03-25 13:00:00+00:00,0.0
2024-03-25 14:00:00+00:00,0.0
2024-03-25 15:00:00+00:00,0.0
2024-03-25 16:00:00+00:00,0.0
2024-03-25 17:00:00+00:00,0.0
2024-03-25 18:00:00+00:00,0.0
2024-03-25 19:00:00+00:00,0.0
2024-03-26 13:00:00+00:00,0.0
2024-03-26 14:00:00+00:00,0.0
2024-03-26 15:00:00+00:00,0.0
2024-03-26 16:00:00+00:00,0.0
2024-03-26 17:00:00+00:00,0.0
2024-03-26 18:00:00+00:00,0.0
2024-03-26 19:00:00+00:00,0.0
2024-03-27 13:00:00+00:00,0.0
2024-03-27 14:00:00+00:00,0.0
2024-03-27 15:00:00+00:00,0.0
2024-03-27 16:00:00+00:00,0.0
2024-03-27 17:00:00+00:00,0.0
2024-03-27 18:00:00+00:00,0.0
2024-03-27 19:00:00+00:00,0.0
2024-03-28 13:00:00+00:00,0.0
2024-03-28 14:00:00+00:00,0.0
2024-03-28 15:00:00+00:00,0.0
2024-03-28 16:00:00+00:00,0.0
2024-03-28 17:00:00+00:00,0.0
2024-03-28 18:00:00+00:00,0.0
2024-03-28 19:00:00+00:00,0.0
2024-04-01 13:00:00+00:00,0.0
2024-04-01 14:00:00+00:00,0.0
2024-04-01 15:00:00+00:00,0.0
2024-04-01 16:00:00+00:00,0.0
2024-04-01 17:00:00+00:00,0.0
2024-04-01 18:00:00+00:00,0.0
2024-04-01 19:00:00+00:00,0.0
2024-04-02 13:00:00+00:00,0.0
2024-04-02 14:00:00+00:00,0.0
2024-04-02 15:00:00+00:00,0.0
2024-04-02 16:00:00+00:00,0.0
2024-04-02 17:00:00+00:00,0.0
2024-04-02 18:00:00+00:00,0.0
2024-04-02 19:00:00+00:00,0.0
2024-04-03 13:00:00+00:00,0.0
2024-04-03 14:00:00+00:00,0.0
2024-04-03 15:00:00+00:00,0.0
2024-04-03 16:00:00+00:00,0.0
2024-04-03 17:00:00+00:00,0.0
2024-04-03 18:00:00+00:00,0.0
2024-04-03 19:00:00+00:00,0.0
2024-04-04 13:00:00+00:00,0.0
2024-04-04 14:00:00+00:00,0.0
2024-04-04 15:00:00+00:00,0.0
2024-04-04 16:00:00+00:00,0.0
2024-04-04 17:00:00+00:00,0.0
2024-04-04 18:00:00+00:00,0.0
2024-04-04 19:00:00+00:00,0.0
2024-04-05 13:00:00+00:00,0.0
2024-04-05 14:00:00+00:00,0.0
2024-04-05 15:00:00+00:00,0.0
2024-04-05 16:00:00+00:00,0.0
2024-04-05 17:00:00+00:00,0.0
2024-04-05 18:00:00+00:00,0.0
2024-04-05 19:00:00+00:00,0.0
2024-04-08 13:00:00+00:00,0.0
2024-04-08 14:00:00+00:00,0.0
2024-04-08 15:00:00+00:00,0.0
2024-04-08 16:00:00+00:00,0.0
2024-04-08 17:00:00+00:00,0.0
2024-04-08 18:00:00+00:00,0.0
2024-04-08 19:00:00+00:00,0.0
2024-04-09 13:00:00+00:00,0.0
2024-04-09 14:00:00+00:00,0.0
2024-04-09 15:00:00+00:00,0.0
2024-04-09 16:00:00+00:00,0.0
2024-04-09 17:00:00+00:00,0.0
2024-04-09 18:00:00+00:00,0.0
2024-04-09 19:00:00+00:00,0.0
2024-04-10 13:00:00+00:00,0.0
2024-04-10 14:00:00+00:00,0.0
2024-04-10 15:00:00+00:00,0.0
2024-04-10 16:00:00+00:00,0.0
2024-04-10 17:00:00+00:00,0.0
2024-04-10 18:00:00+00:00,0.0
2024-04-10 19:00:00+00:00,0.0
2024-04-11 13:00:00+00:00,0.0
2024-04-11 14:00:00+00:00,0.0
2024-04-11 15:00:00+00:00,0.0
2024-04-11 16:00:00+00:00,0.0
2024-04-11 17:00:00+00:00,0.0
2024-04-11 18:00:00+00:00,0.0
2024-04-11 19:00:00+00:00,0.0
2024-04-12 13:00:00+00:00,0.0
2024-04-12 14:00:00+00:00,0.0
2024-04-12 15:00:00+00:00,0.0
2024-04-12 16:00:00+00:00,0.0
2024-04-12 17:00:00+00:00,0.0
2024-04-12 18:00:00+00:00,0.0
2024-04-12 19:00:00+00:00,0.0
2024-04-15 13:00:00+00:00,0.0
2024-04-15 14:00:00+00:00,0.0
2024-04-15 15:00:00+00:00,0.0
2024-04-15 16:00:00+00:00,0.0
2024-04-15 17:00:00+00:00,0.0
2024-04-15 18:00:00+00:00,0.0
2024-04-15 19:00:00+00:00,0.0
2024-04-16 13:00:00+00:00,0.0
2024-04-16 14:00:00+00:00,0.0
2024-04-16 15:00:00+00:00,0.0
2024-04-16 16:00:00+00:00,0.0
2024-04-16 17:00:00+00:00,0.0
2024-04-16 18:00:00+00:00,0.0
2024-04-16 19:00:00+00:00,0.0
2024-04-17 13:00:00+00:00,0.0
2024-04-17 14:00:00+00:00,0.0
2024-04-17 15:00:00+00:00,0.0
2024-04-17 16:00:00+00:00,0.0
2024-04-17 17:00:00+00:00,0.0
2024-04-17 18:00:00+00:00,0.0
2024-04-17 19:00:00+00:00,0.0
2024-04-18 13:00:00+00:00,0.0
2024-04-18 14:00:00+00:00,0.0
2024-04-18 15:00:00+00:00,0.0
2024-04-18 16:00:00+00:00,0.0
2024-04-18 17:00:00+00:00,0.0
2024-04-18 18:00:00+00:00,0.0
2024-04-18 19:00:00+00:00,0.0
2024-04-19 13:00:00+00:00,0.0
2024-04-19 14:00:00+00:00,0.0
2024-04-19 15:00:00+00:00,0.0
2024-04-19 16:00:00+00:00,0.0
2024-04-19 17:00:00+00:00,0.0
2024-04-19 18:00:00+00:00,0.0
2024-04-19 19:00:00+00:00,0.0
2024-04-22 13:00:00+00:00,0.0
2024-04-22 14:00:00+00:00,0.0
2024-04-22 15:00:00+00:00,0.0
2024-04-22 16:00:00+00:00,0.0
2024-04-22 17:00:00+00:00,0.0
2024-04-22 18:00:00+00:00,0.0
2024-04-22 19:00:00+00:00,0.0
2024-04-23 13:00:00+00:00,0.0
2024-04-23 14:00:00+00:00,0.0
2024-04-23 15:00:00+00:00,0.0
2024-04-23 16:00:00+00:00,0.0
2024-04-23 17:00:00+00:00,0.0
2024-04-23 18:00:00+00:00,0.0
2024-04-23 19:00:00+00:00,0.0
2024-04-24 13:00:00+00:00,0.0
2024-04-24 14:00:00+00:00,0.0
2024-04-24 15:00:00+00:00,0.0
2024-04-24 16:00:00+00:00,0.0
2024-04-24 17:00:00+00:00,0.0
2024-04-24 18:00:00+00:00,0.0
2024-04-24 19:00:00+00:00,0.0
2024-04-25 13:00:00+00:00,0.0
2024-04-25 14:00:00+00:00,0.0
2024-04-25 15:00:00+00:00,0.0
2024-04-25 16:00:00+00:00,0.0
2024-04-25 17:00:00+00:00,0.0
2024-04-25 18:00:00+00:00,0.0
2024-04-25 19:00:00+00:00,0.0
2024-04-26 13:00:00+00:00,0.0
2024-04-26 14:00:00+00:00,0.0
2024-04-26 15:00:00+00:00,0.0
2024-04-26 16:00:00+00:00,0.0
2024-04-26 17:00:00+00:00,0.0
2024-04-26 18:00:00+00:00,0.0
2024-04-26 19:00:00+00:00,0.0
2024-04-29 13:00:00+00:00,0.0
2024-04-29 14:00:00+00:00,0.0
2024-04-29 15:00:00+00:00,0.0
2024-04-29 16:00:00+00:00,0.0
2024-04-29 17:00:00+00:00,0.0
2024-04-29 18:00:00+00:00,0.0
2024-04-29 19:00:00+00:00,0.0
2024-04-30 13:00:00+00:00,0.0
2024-04-30 14:00:00+00:00,0.0
2024-04-30 15:00:00+00:00,0.0
2024-04-30 16:00:00+00:00,0.0
2024-04-30 17:00:00+00:00,0.0
2024-04-30 18:00:00+00:00,0.0
2024-04-30 19:00:00+00:00,0.0
2024-05-01 13:00:00+00:00,0.0
2024-05-01 14:00:00+00:00,0.0
2024-05-01 15:00:00+00:00,0.0
2024-05-01 16:00:00+00:00,0.0
2024-05-01 17:00:00+00:00,0.0
2024-05-01 18:00:00+00:00,0.0
2024-05-01 19:00:00+00:00,0.0
2024-05-02 13:00:00+00:00,0.0
2024-05-02 14:00:00+00:00,0.0
2024-05-02 15:00:00+00:00,0.0
2024-05-02 16:00:00+00:00,0.0
2024-05-02 17:00:00+00:00,0.0
2024-05-02 18:00:00+00:00,0.0
2024-05-02 19:00:00+00:00,0.0
2024-05-03 13:00:00+00:00,0.0
2024-05-03 14:00:00+00:00,0.0
2024-05-03 15:00:00+00:00,0.0
2024-05-03 16:00:00+00:00,0.0
2024-05-03 17:00:00+00:00,0.0
2024-05-03 18:00:00+00:00,0.0
2024-05-03 19:00:00+00:00,0.0
2024-05-06 13:00:00+00:00,0.0
2024-05-06 14:00:00+00:00,0.0
2024-05-06 15:00:00+00:00,0.0
2024-05-06 16:00:00+00:00,0.0
2024-05-06 17:00:00+00:00,0.0
2024-05-06 18:00:00+00:00,0.0
2024-05-06 19:00:00+00:00,0.0
2024-05-07 13:00:00+00:00,0.0
2024-05-07 14:00:00+00:00,0.0
2024-05-07 15:00:00+00:00,0.0
2024-05-07 16:00:00+00:00,0.0
2024-05-07 17:00:00+00:00,0.0
2024-05-07 18:00:00+00:00,0.0
2024-05-07 19:00:00+00:00,0.0
2024-05-08 13:00:00+00:00,0.0
2024-05-08 14:00:00+00:00,0.0
2024-05-08 15:00:00+00:00,0.0
2024-05-08 16:00:00+00:00,0.0
2024-05-08 17:00:00+00:00,0.0
2024-05-08 18:00:00+00:00,0.0
2024-05-08 19:00:00+00:00,0.0
2024-05-09 13:00:00+00:00,0.0
2024-05-09 14:00:00+00:00,0.0
2024-05-09 15:00:00+00:00,0.0
2024-05-09 16:00:00+00:00,0.0
2024-05-09 17:00:00+00:00,0.0
2024-05-09 18:00:00+00:00,0.0
2024-05-09 19:00:00+00:00,0.0
2024-05-10 13:00:00+00:00,0.0
2024-05-10 14:00:00+00:00,0.0
2024-05-10 15:00:00+00:00,0.0
2024-05-10 16:00:00+00:00,0.0
2024-05-10 17:00:00+00:00,0.0
2024-05-10 18:00:00+00:00,0.0
2024-05-10 19:00:00+00:00,0.0
2024-05-13 13:00:00+00:00,0.0
2024-05-13 14:00:00+00:00,0.0
2024-05-13 15:00:00+00:00,0.0
2024-05-13 16:00:00+00:00,0.0
2024-05-13 17:00:00+00:00,0.0
2024-05-13 18:00:00+00:00,0.0
2024-05-13 19:00:00+00:00,0.0
2024-05-14 13:00:00+00:00,0.0
2024-05-14 14:00:00+00:00,0.0
2024-05-14 15:00:00+00:00,0.0
2024-05-14 16:00:00+00:00,0.0
2024-05-14 17:00:00+00:00,0.0
2024-05-14 18:00:00+00:00,0.0
2024-05-14 19:00:00+00:00,0.0
2024-05-15 13:00:00+00:00,0.0
2024-05-15 14:00:00+00:00,0.0
2024-05-15 15:00:00+00:00,0.0
2024-05-15 16:00:00+00:00,0.0
2024-05-15 17:00:00+00:00,0.0
2024-05-15 18:00:00+00:00,0.0
2024-05-15 19:00:00+00:00,0.0
2024-05-16 13:00:00+00:00,0.0
2024-05-16 14:00:00+00:00,0.0
2024-05-16 15:00:00+00:00,0.0
2024-05-16 16:00:00+00:00,0.0
2024-05-16 17:00:00+00:00,0.0
2024-05-16 18:00:00+00:00,0.0
2024-05-16 19:00:00+00:00,0.0
2024-05-17 13:00:00+00:00,0.0
2024-05-17 14:00:00+00:00,0.0
2024-05-17 15:00:00+00:00,0.0
2024-05-17 16:00:00+00:00,0.0
2024-05-17 17:00:00+00:00,0.0
2024-05-17 18:00:00+00:00,0.0
2024-05-17 19:00:00+00:00,0.0
2024-05-20 13:00:00+00:00,0.0
2024-05-20 14:00:00+00:00,0.0
2024-05-20 15:00:00+00:00,0.0
2024-05-20 16:00:00+00:00,0.0
2024-05-20 17:00:00+00:00,0.0
2024-05-20 18:00:00+00:00,0.0
2024-05-20 19:00:00+00:00,0.0
2024-05-21 13:00:00+00:00,0.0
2024-05-21 14:00:00+00:00,0.0
2024-05-21 15:00:00+00:00,0.0
2024-05-21 16:00:00+00:00,0.0
2024-05-21 17:00:00+00:00,0.0
2024-05-21 18:00:00+00:00,0.0
2024-05-21 19:00:00+00:00,0.0
2024-05-22 13:00:00+00:00,0.0
2024-05-22 14:00:00+00:00,0.0
2024-05-22 15:00:00+00:00,0.0
2024-05-22 16:00:00+00:00,0.0
2024-05-22 17:00:00+00:00,0.0
2024-05-22 18:00:00+00:00,0.0
2024-05-22 19:00:00+00:00,0.0
2024-05-23 13:00:00+00:00,0.0
2024-05-23 14:00:00+00:00,0.0
2024-05-23 15:00:00+00:00,0.0
2024-05-23 16:00:00+00:00,0.0
2024-05-23 17:00:00+00:00,0.0
2024-05-23 18:00:00+00:00,0.0
2024-05-23 19:00:00+00:00,0.0
2024-05-24 13:00:00+00:00,0.0
2024-05-24 14:00:00+00:00,0.0
2024-05-24 15:00:00+00:00,0.0
2024-05-24 16:00:00+00:00,0.0
2024-05-24 17:00:00+00:00,0.0
2024-05-24 18:00:00+00:00,0.0
2024-05-24 19:00:00+00:00,0.0
2024-05-28 13:00:00+00:00,0.0
2024-05-28 14:00:00+00:00,0.0
2024-05-28 15:00:00+00:00,0.0
2024-05-28 16:00:00+00:00,0.0
2024-05-28 17:00:00+00:00,0.0
2024-05-28 18:00:00+00:00,0.0
2024-05-28 19:00:00+00:00,0.0
2024-05-29 13:00:00+00:00,0.0
2024-05-29 14:00:00+00:00,0.0
2024-05-29 15:00:00+00:00,0.0
2024-05-29 16:00:00+00:00,0.0
2024-05-29 17:00:00+00:00,0.0
2024-05-29 18:00:00+00:00,0.0
2024-05-29 19:00:00+00:00,0.0
2024-05-30 13:00:00+00:00,0.0
2024-05-30 14:00:00+00:00,0.0
2024-05-30 15:00:00+00:00,0.0
2024-05-30 16:00:00+00:00,0.0
2024-05-30 17:00:00+00:00,0.0
2024-05-30 18:00:00+00:00,0.0
2024-05-30 19:00:00+00:00,0.0
2024-05-31 13:00:00+00:00,0.0
2024-05-31 14:00:00+00:00,0.0
2024-05-31 15:00:00+00:00,0.0
2024-05-31 16:00:00+00:00,0.0
2024-05-31 17:00:00+00:00,0.0
2024-05-31 18:00:00+00:00,0.0
2024-05-31 19:00:00+00:00,0.0
2024-06-03 13:00:00+00:00,0.0
2024-06-03 14:00:00+00:00,0.0
2024-06-03 15:00:00+00:00,0.0
2024-06-03 16:00:00+00:00,0.0
2024-06-03 17:00:00+00:00,0.0
2024-06-03 18:00:00+00:00,0.0
2024-06-03 19:00:00+00:00,0.0
2024-06-04 13:00:00+00:00,0.0
2024-06-04 14:00:00+00:00,0.0
2024-06-04 15:00:00+00:00,0.0
2024-06-04 16:00:00+00:00,0.0
2024-06-04 17:00:00+00:00,0.0
2024-06-04 18:00:00+00:00,0.0
2024-06-04 19:00:00+00:00,0.0
2024-06-05 13:00:00+00:00,0.0
2024-06-05 14:00:00+00:00,0.0
2024-06-05 17:00:00+00:00,0.0
2024-06-05 19:00:00+00:00,0.0
2024-06-06 13:00:00+00:00,0.0
2024-06-06 14:00:00+00:00,0.0
2024-06-07 13:00:00+00:00,0.0
2024-06-07 14:00:00+00:00,0.0
2024-06-07 15:00:00+00:00,0.0
2024-06-07 16:00:00+00:00,0.0
2024-06-07 17:00:00+00:00,0.0
2024-06-07 18:00:00+00:00,0.0
2024-06-07 19:00:00+00:00,0.0
2024-06-10 13:00:00+00:00,0.0
2024-06-10 14:00:00+00:00,0.0
2024-06-10 16:00:00+00:00,0.0
2024-06-10 17:00:00+00:00,0.0
2024-06-10 18:00:00+00:00,0.0
2024-06-10 19:00:00+00:00,0.0
2024-06-11 13:00:00+00:00,0.0
2024-06-11 14:00:00+00:00,0.0
2024-06-11 15:00:00+00:00,0.0
2024-06-11 17:00:00+00:00,0.0
2024-06-11 18:00:00+00:00,0.0
2024-06-11 19:00:00+00:00,0.0
2024-06-12 13:00:00+00:00,0.0
2024-06-12 15:00:00+00:00,0.0
2024-06-12 18:00:00+00:00,0.0
2024-06-12 19:00:00+00:00,0.0
2024-06-13 13:00:00+00:00,0.0
2024-06-13 14:00:00+00:00,0.0
2024-06-13 15:00:00+00:00,0.0
2024-06-13 17:00:00+00:00,0.0
2024-06-13 18:00:00+00:00,0.0
2024-06-13 19:00:00+00:00,0.0
2024-06-14 13:00:00+00:00,0.0
2024-06-14 14:00:00+00:00,0.0
2024-06-14 15:00:00+00:00,0.0
2024-06-14 17:00:00+00:00,0.0
2024-06-14 19:00:00+00:00,0.0
2024-06-17 13:00:00+00:00,0.0
2024-06-17 14:00:00+00:00,0.0
2024-06-17 16:00:00+00:00,0.0
2024-06-17 17:00:00+00:00,0.0
2024-06-17 18:00:00+00:00,0.0
2024-06-17 19:00:00+00:00,0.0
2024-06-18 15:00:00+00:00,0.0
2024-06-18 16:00:00+00:00,0.0
2024-06-18 17:00:00+00:00,0.0
2024-06-18 18:00:00+00:00,0.0
2024-06-18 19:00:00+00:00,0.0
2024-06-20 13:00:00+00:00,0.0
2024-06-20 15:00:00+00:00,0.0
2024-06-20 16:00:00+00:00,0.0
2024-06-20 17:00:00+00:00,0.0
2024-06-20 18:00:00+00:00,0.0
2024-06-21 13:00:00+00:00,0.0
2024-06-21 17:00:00+00:00,0.0
2024-06-21 19:00:00+00:00,0.0
2024-06-24 13:00:00+00:00,0.0
2024-06-24 14:00:00+00:00,0.0
2024-06-24 15:00:00+00:00,0.0
2024-06-24 19:00:00+00:00,0.0
2024-06-25 13:00:00+00:00,0.0
2024-06-25 14:00:00+00:00,0.0
2024-06-25 15:00:00+00:00,0.0
2024-06-25 16:00:00+00:00,0.0
2024-06-25 17:00:00+00:00,0.0
2024-06-25 19:00:00+00:00,0.0
2024-06-26 13:00:00+00:00,0.0
2024-06-26 14:00:00+00:00,0.0
2024-06-26 15:00:00+00:00,0.0
2024-06-26 16:00:00+00:00,0.0
2024-06-26 18:00:00+00:00,0.0
2024-06-26 19:00:00+00:00,0.0
2024-06-27 14:00:00+00:00,0.0
2024-06-27 18:00:00+00:00,0.0
2024-06-27 19:00:00+00:00,0.0
2024-06-28 13:00:00+00:00,0.0
2024-06-28 15:00:00+00:00,0.0
2024-06-28 17:00:00+00:00,0.0
2024-06-28 18:00:00+00:00,0.0
2024-06-28 19:00:00+00:00,0.0
2024-07-01 13:00:00+00:00,0.0
2024-07-01 14:00:00+00:00,0.0
2024-07-01 15:00:00+00:00,0.0
2024-07-01 17:00:00+00:00,0.0
2024-07-01 18:00:00+00:00,0.0
2024-07-02 13:00:00+00:00,0.0
2024-07-02 16:00:00+00:00,0.0
2024-07-02 18:00:00+00:00,0.0
2024-07-02 19:00:00+00:00,0.0
2024-07-03 13:00:00+00:00,0.0
2024-07-03 14:00:00+00:00,0.0
2024-07-03 15:00:00+00:00,0.0
2024-07-05 13:00:00+00:00,0.0
2024-07-05 15:00:00+00:00,0.0
2024-07-05 16:00:00+00:00,0.0
2024-07-05 18:00:00+00:00,0.0
2024-07-05 19:00:00+00:00,0.0
2024-07-08 13:00:00+00:00,0.0
2024-07-08 14:00:00+00:00,0.0
2024-07-08 15:00:00+00:00,0.0
2024-07-08 16:00:00+00:00,0.0
2024-07-08 17:00:00+00:00,0.0
2024-07-08 18:00:00+00:00,0.0
2024-07-08 19:00:00+00:00,0.0
2024-07-09 13:00:00+00:00,0.0
2024-07-09 14:00:00+00:00,0.0
2024-07-09 16:00:00+00:00,0.0
2024-07-09 17:00:00+00:00,0.0
2024-07-09 18:00:00+00:00,0.0
2024-07-10 13:00:00+00:00,0.0
2024-07-10 14:00:00+00:00,0.0
2024-07-10 15:00:00+00:00,0.0
2024-07-10 16:00:00+00:00,0.0
2024-07-10 17:00:00+00:00,0.0
2024-07-10 18:00:00+00:00,0.0
2024-07-10 19:00:00+00:00,0.0
2024-07-11 13:00:00+00:00,0.0
2024-07-11 14:00:00+00:00,0.0
2024-07-11 15:00:00+00:00,0.0
2024-07-11 16:00:00+00:00,0.0
2024-07-11 17:00:00+00:00,0.0
2024-07-11 18:00:00+00:00,0.0
2024-07-12 13:00:00+00:00,0.0
2024-07-12 14:00:00+00:00,0.0
2024-07-12 16:00:00+00:00,0.0
2024-07-15 14:00:00+00:00,0.0
2024-07-15 15:00:00+00:00,0.0
2024-07-15 16:00:00+00:00,0.0
2024-07-15 17:00:00+00:00,0.0
2024-07-15 18:00:00+00:00,0.0
2024-07-15 19:00:00+00:00,0.0
2024-07-16 13:00:00+00:00,0.0
2024-07-16 14:00:00+00:00,0.0
2024-07-16 17:00:00+00:00,0.0
2024-07-16 18:00:00+00:00,0.0
2024-07-16 19:00:00+00:00,0.0
2024-07-17 13:00:00+00:00,0.0
2024-07-17 14:00:00+00:00,0.0
2024-07-17 16:00:00+00:00,0.0
2024-07-17 17:00:00+00:00,0.0
2024-07-17 18:00:00+00:00,0.0
2024-07-17 19:00:00+00:00,0.0
2024-07-18 13:00:00+00:00,0.0
2024-07-18 14:00:00+00:00,0.0
2024-07-18 18:00:00+00:00,0.0
2024-07-18 19:00:00+00:00,0.0
2024-07-19 13:00:00+00:00,0.0
2024-07-19 14:00:00+00:00,0.0
2024-07-19 15:00:00+00:00,0.0
2024-07-19 17:00:00+00:00,0.0
2024-07-19 19:00:00+00:00,0.0
2024-07-22 13:00:00+00:00,0.0
2024-07-22 14:00:00+00:00,0.0
2024-07-22 15:00:00+00:00,0.0
2024-07-22 18:00:00+00:00,0.0
2024-07-22 19:00:00+00:00,0.0
2024-07-23 13:00:00+00:00,0.0
2024-07-23 15:00:00+00:00,0.0
2024-07-23 18:00:00+00:00,0.0
2024-07-23 19:00:00+00:00,0.0
2024-07-24 13:00:00+00:00,0.0
2024-07-24 14:00:00+00:00,0.0
2024-07-24 15:00:00+00:00,0.0
2024-07-24 16:00:00+00:00,0.0
2024-07-24 17:00:00+00:00,0.0
2024-07-24 18:00:00+00:00,0.0
2024-07-24 19:00:00+00:00,0.0
2024-07-25 13:00:00+00:00,0.0
2024-07-25 14:00:00+00:00,0.0
2024-07-25 15:00:00+00:00,0.0
2024-07-25 16:00:00+00:00,0.0
2024-07-25 17:00:00+00:00,0.0
2024-07-25 18:00:00+00:00,0.0
2024-07-25 19:00:00+00:00,0.0
2024-07-26 13:00:00+00:00,0.0
2024-07-26 14:00:00+00:00,0.0
2024-07-26 15:00:00+00:00,0.0
2024-07-26 16:00:00+00:00,0.0
2024-07-26 17:00:00+00:00,0.0
2024-07-26 18:00:00+00:00,0.0
2024-07-26 19:00:00+00:00,0.0
2024-07-29 13:00:00+00:00,0.0
2024-07-29 14:00:00+00:00,0.0
2024-07-29 15:00:00+00:00,0.0
2024-07-29 16:00:00+00:00,0.0
2024-07-29 18:00:00+00:00,0.0
2024-07-30 13:00:00+00:00,0.0
2024-07-30 14:00:00+00:00,0.0
2024-07-30 15:00:00+00:00,0.0
2024-07-30 16:00:00+00:00,0.0
2024-07-30 17:00:00+00:00,0.0
2024-07-30 18:00:00+00:00,0.0
2024-07-30 19:00:00+00:00,0.0
2024-07-31 13:00:00+00:00,0.0
2024-07-31 14:00:00+00:00,0.0
2024-07-31 16:00:00+00:00,0.0
2024-07-31 17:00:00+00:00,0.0
2024-07-31 18:00:00+00:00,0.0
2024-07-31 19:00:00+00:00,0.0
2024-08-01 13:00:00+00:00,0.0
2024-08-01 14:00:00+00:00,0.0
2024-08-01 15:00:00+00:00,0.0
2024-08-01 16:00:00+00:00,0.0
2024-08-01 17:00:00+00:00,0.0
2024-08-01 18:00:00+00:00,0.0
2024-08-01 19:00:00+00:00,0.0
2024-08-02 13:00:00+00:00,0.0
2024-08-02 14:00:00+00:00,0.0
2024-08-02 15:00:00+00:00,0.0
2024-08-02 16:00:00+00:00,0.0
2024-08-02 17:00:00+00:00,0.0
2024-08-02 19:00:00+00:00,0.0
2024-08-05 13:00:00+00:00,0.0
2024-08-05 14:00:00+00:00,0.0
2024-08-05 15:00:00+00:00,0.0
2024-08-05 16:00:00+00:00,0.0
2024-08-05 17:00:00+00:00,0.0
2024-08-05 18:00:00+00:00,0.0
2024-08-05 19:00:00+00:00,0.0
2024-08-06 13:00:00+00:00,0.0
2024-08-06 14:00:00+00:00,0.0
2024-08-06 15:00:00+00:00,0.0
2024-08-06 16:00:00+00:00,0.0
2024-08-06 17:00:00+00:00,0.0
2024-08-06 18:00:00+00:00,0.0
2024-08-06 19:00:00+00:00,0.0
2024-08-07 13:00:00+00:00,0.0
2024-08-07 14:00:00+00:00,0.0
2024-08-07 15:00:00+00:00,0.0
2024-08-07 16:00:00+00:00,0.0
2024-08-07 17:00:00+00:00,0.0
2024-08-07 19:00:00+00:00,0.0
2024-08-08 13:00:00+00:00,0.0
2024-08-08 14:00:00+00:00,0.0
2024-08-08 15:00:00+00:00,0.0
2024-08-08 16:00:00+00:00,0.0
2024-08-08 17:00:00+00:00,0.0
2024-08-08 18:00:00+00:00,0.0
2024-08-08 19:00:00+00:00,0.0
2024-08-09 13:00:00+00:00,0.0
2024-08-09 14:00:00+00:00,0.0
2024-08-09 15:00:00+00:00,0.0
2024-08-09 16:00:00+00:00,0.0
2024-08-09 17:00:00+00:00,0.0
2024-08-09 18:00:00+00:00,0.0
2024-08-12 14:00:00+00:00,0.0
2024-08-12 16:00:00+00:00,0.0
2024-08-12 17:00:00+00:00,0.0
2024-08-12 18:00:00+00:00,0.0
2024-08-12 19:00:00+00:00,0.0
2024-08-13 13:00:00+00:00,0.0
2024-08-13 16:00:00+00:00,0.0
2024-08-13 18:00:00+00:00,0.0
2024-08-13 19:00:00+00:00,0.0
2024-08-14 13:00:00+00:00,0.0
2024-08-14 14:00:00+00:00,0.0
2024-08-14 15:00:00+00:00,0.0
2024-08-14 18:00:00+00:00,0.0
2024-08-14 19:00:00+00:00,0.0
2024-08-15 13:00:00+00:00,0.0
2024-08-15 14:00:00+00:00,0.0
2024-08-15 16:00:00+00:00,0.0
2024-08-15 17:00:00+00:00,0.0
2024-08-15 18:00:00+00:00,0.0
2024-08-16 13:00:00+00:00,0.0
2024-08-16 14:00:00+00:00,0.0
2024-08-16 15:00:00+00:00,0.0
2024-08-16 17:00:00+00:00,0.0
2024-08-16 18:00:00+00:00,0.0
2024-08-16 19:00:00+00:00,0.0
2024-08-19 13:00:00+00:00,0.0
2024-08-19 14:00:00+00:00,0.0
2024-08-19 19:00:00+00:00,0.0
2024-08-20 13:00:00+00:00,0.0
2024-08-20 15:00:00+00:00,0.0
2024-08-20 17:00:00+00:00,0.0
2024-08-20 18:00:00+00:00,0.0
2024-08-21 13:00:00+00:00,0.0
2024-08-21 14:00:00+00:00,0.0
2024-08-21 15:00:00+00:00,0.0
2024-08-21 16:00:00+00:00,0.0
2024-08-21 17:00:00+00:00,0.0
2024-08-21 19:00:00+00:00,0.0
2024-08-22 13:00:00+00:00,0.0
2024-08-22 14:00:00+00:00,0.0
2024-08-22 15:00:00+00:00,0.0
2024-08-22 17:00:00+00:00,0.0
2024-08-22 19:00:00+00:00,0.0
2024-08-23 13:00:00+00:00,0.0
2024-08-23 14:00:00+00:00,0.0
2024-08-23 15:00:00+00:00,0.0
2024-08-23 16:00:00+00:00,0.0
2024-08-23 17:00:00+00:00,0.0
2024-08-23 18:00:00+00:00,0.0
2024-08-26 13:00:00+00:00,0.0
2024-08-26 14:00:00+00:00,0.0
2024-08-26 15:00:00+00:00,0.0
2024-08-26 18:00:00+00:00,0.0
2024-08-26 19:00:00+00:00,0.0
2024-08-27 13:00:00+00:00,0.0
2024-08-27 14:00:00+00:00,0.0
2024-08-27 16:00:00+00:00,0.0
2024-08-27 19:00:00+00:00,0.0
2024-08-28 16:00:00+00:00,0.0
2024-08-28 17:00:00+00:00,0.0
2024-08-28 19:00:00+00:00,0.0
2024-08-29 13:00:00+00:00,0.0
2024-08-29 14:00:00+00:00,0.0
2024-08-29 15:00:00+00:00,0.0
2024-08-29 16:00:00+00:00,0.0
2024-08-29 17:00:00+00:00,0.0
2024-08-29 19:00:00+00:00,0.0
2024-08-30 13:00:00+00:00,0.0
2024-08-30 14:00:00+00:00,0.0
2024-08-30 16:00:00+00:00,0.0
2024-08-30 19:00:00+00:00,0.0
2024-09-03 13:00:00+00:00,0.0
2024-09-03 14:00:00+00:00,0.0
2024-09-03 16:00:00+00:00,0.0
2024-09-03 17:00:00+00:00,0.0
2024-09-03 19:00:00+00:00,0.0
2024-09-04 13:00:00+00:00,0.0
2024-09-04 14:00:00+00:00,0.0
2024-09-04 19:00:00+00:00,0.0
2024-09-05 13:00:00+00:00,0.0
2024-09-05 14:00:00+00:00,0.0
2024-09-05 15:00:00+00:00,0.0
2024-09-05 16:00:00+00:00,0.0
2024-09-05 17:00:00+00:00,0.0
2024-09-05 19:00:00+00:00,0.0
2024-09-06 13:00:00+00:00,0.0
2024-09-06 14:00:00+00:00,0.0
2024-09-06 16:00:00+00:00,0.0
2024-09-06 18:00:00+00:00,0.0
2024-09-06 19:00:00+00:00,0.0
2024-09-09 13:00:00+00:00,0.0
2024-09-09 14:00:00+00:00,0.0
2024-09-09 15:00:00+00:00,0.0
2024-09-09 17:00:00+00:00,0.0
2024-09-09 18:00:00+00:00,0.0
2024-09-09 19:00:00+00:00,0.0
2024-09-10 13:00:00+00:00,0.0
2024-09-10 14:00:00+00:00,0.0
2024-09-10 15:00:00+00:00,0.0
2024-09-10 17:00:00+00:00,0.0
2024-09-10 18:00:00+00:00,0.0
2024-09-10 19:00:00+00:00,0.0
2024-09-11 13:00:00+00:00,0.0
2024-09-11 14:00:00+00:00,0.0
2024-09-11 15:00:00+00:00,0.0
2024-09-11 16:00:00+00:00,0.0
2024-09-11 19:00:00+00:00,0.0
2024-09-12 13:00:00+00:00,0.0
2024-09-12 14:00:00+00:00,0.0
2024-09-12 15:00:00+00:00,0.0
2024-09-12 16:00:00+00:00,0.0
2024-09-12 17:00:00+00:00,0.0
2024-09-12 18:00:00+00:00,0.0
2024-09-12 19:00:00+00:00,0.0
2024-09-13 13:00:00+00:00,0.0
2024-09-13 14:00:00+00:00,0.0
2024-09-13 15:00:00+00:00,0.0
2024-09-16 13:00:00+00:00,0.0
2024-09-16 14:00:00+00:00,0.0
2024-09-16 15:00:00+00:00,0.0
2024-09-16 16:00:00+00:00,0.0
2024-09-16 17:00:00+00:00,0.0
2024-09-16 18:00:00+00:00,0.0
2024-09-16 19:00:00+00:00,0.0
2024-09-17 13:00:00+00:00,0.0
2024-09-17 14:00:00+00:00,0.0
2024-09-17 16:00:00+00:00,0.0
2024-09-17 18:00:00+00:00,0.0
2024-09-17 19:00:00+00:00,0.0
2024-09-18 13:00:00+00:00,0.0
2024-09-18 14:00:00+00:00,0.0
2024-09-18 15:00:00+00:00,0.0
2024-09-18 17:00:00+00:00,0.0
2024-09-18 18:00:00+00:00,0.0
2024-09-18 19:00:00+00:00,0.0
2024-09-19 13:00:00+00:00,0.0
2024-09-19 14:00:00+00:00,0.0
2024-09-19 15:00:00+00:00,0.0
2024-09-19 17:00:00+00:00,0.0
2024-09-19 18:00:00+00:00,0.0
2024-09-20 13:00:00+00:00,0.0
2024-09-20 18:00:00+00:00,0.0
2024-09-20 19:00:00+00:00,0.0
2024-09-23 13:00:00+00:00,0.0
2024-09-23 14:00:00+00:00,0.0
2024-09-23 15:00:00+00:00,0.0
2024-09-23 16:00:00+00:00,0.0
2024-09-23 18:00:00+00:00,0.0
2024-09-23 19:00:00+00:00,0.0
2024-09-24 13:00:00+00:00,0.0
2024-09-24 14:00:00+00:00,0.0
2024-09-24 15:00:00+00:00,0.0
2024-09-24 18:00:00+00:00,0.0
2024-09-24 19:00:00+00:00,0.0
2024-09-25 13:00:00+00:00,0.0
2024-09-25 14:00:00+00:00,0.0
2024-09-25 16:00:00+00:00,0.0
2024-09-25 18:00:00+00:00,0.0
2024-09-26 13:00:00+00:00,0.0
2024-09-26 14:00:00+00:00,0.0
2024-09-26 15:00:00+00:00,0.0
2024-09-26 16:00:00+00:00,0.0
2024-09-26 17:00:00+00:00,0.0
2024-09-26 18:00:00+00:00,0.0
2024-09-26 19:00:00+00:00,0.0
2024-09-27 13:00:00+00:00,0.0
2024-09-27 14:00:00+00:00,0.0
2024-09-27 16:00:00+00:00,0.0
2024-09-27 17:00:00+00:00,0.0
2024-09-27 18:00:00+00:00,0.0
2024-09-27 19:00:00+00:00,0.0
2024-09-30 13:00:00+00:00,0.0
2024-09-30 14:00:00+00:00,60.58590375528943
2024-09-30 15:00:00+00:00,46.35169954089101
2024-09-30 16:00:00+00:00,28.208198843702366
2024-09-30 17:00:00+00:00,62.51848925958937
2024-09-30 19:00:00+00:00,17.368973168323713
2024-10-01 13:00:00+00:00,127.41435598640746
2024-10-01 14:00:00+00:00,114.91318260419924
2024-10-01 15:00:00+00:00,122.16070939234457
2024-10-01 16:00:00+00:00,154.1128683377829
2024-10-01 17:00:00+00:00,109.07695127039437
2024-10-01 19:00:00+00:00,131.6380288587768
2024-10-02 13:00:00+00:00,155.36300020072994
2024-10-02 14:00:00+00:00,128.91629847277224
2024-10-02 15:00:00+00:00,123.01740058931044
2024-10-02 16:00:00+00:00,149.1436224564004
2024-10-02 18:00:00+00:00,139.42815452871073
2024-10-02 19:00:00+00:00,131.95342969281114
2024-10-03 13:00:00+00:00,262.2588935238889
2024-10-03 19:00:00+00:00,301.974152497539
2024-10-04 13:00:00+00:00,297.4715427972202
2024-10-04 15:00:00+00:00,324.61469579171086
2024-10-04 16:00:00+00:00,307.011097212282
2024-10-04 17:00:00+00:00,309.3251014090896
2024-10-04 18:00:00+00:00,289.7139932704101
2024-10-04 19:00:00+00:00,253.6023125535932
2024-10-07 13:00:00+00:00,286.62983628591707
2024-10-07 14:00:00+00:00,271.89561587646625
2024-10-07 16:00:00+00:00,262.0444032390217
2024-10-07 18:00:00+00:00,246.97523450056775
2024-10-08 13:00:00+00:00,284.40629605496093
2024-10-08 14:00:00+00:00,243.84182603662808
2024-10-08 15:00:00+00:00,219.92093665316838
2024-10-08 16:00:00+00:00,287.75784577058226
2024-10-08 17:00:00+00:00,306.1311353072158
2024-10-09 13:00:00+00:00,287.43144019450483
2024-10-09 14:00:00+00:00,224.41015999520727
2024-10-09 16:00:00+00:00,243.5069089364108
2024-10-10 13:00:00+00:00,302.9436154285247
2024-10-10 14:00:00+00:00,279.2906087973345
2024-10-10 15:00:00+00:00,278.09879304864967
2024-10-10 16:00:00+00:00,279.64658016016386
2024-10-11 13:00:00+00:00,242.71177064952687
2024-10-11 17:00:00+00:00,235.44952673713834
2024-10-14 13:00:00+00:00,207.54236687824184
2024-10-14 14:00:00+00:00,210.0961025917728
2024-10-14 15:00:00+00:00,206.8395280660194
2024-10-14 18:00:00+00:00,243.7125399320368
2024-10-14 19:00:00+00:00,239.83291848025456
2024-10-15 13:00:00+00:00,34.078003708651636
2024-10-15 14:00:00+00:00,19.06967684197694
2024-10-15 16:00:00+00:00,66.22388354180225
2024-10-15 17:00:00+00:00,86.79839214275215
2024-10-15 18:00:00+00:00,113.9807574821641
2024-10-16 13:00:00+00:00,46.39384825642901
2024-10-16 14:00:00+00:00,46.878800937901794
2024-10-16 15:00:00+00:00,87.1895690687511
2024-10-16 17:00:00+00:00,69.07204672055704
2024-10-16 19:00:00+00:00,114.8290415762799
2024-10-17 14:00:00+00:00,133.28389334844374
2024-10-17 17:00:00+00:00,97.5542454025765
2024-10-17 19:00:00+00:00,41.106720705087746
2024-10-18 13:00:00+00:00,44.91326399677192
2024-10-18 14:00:00+00:00,38.39137786477363
2024-10-18 15:00:00+00:00,-2.65060389141653
2024-10-18 16:00:00+00:00,13.91790914249318
2024-10-18 18:00:00+00:00,111.44499324183207
2024-10-18 19:00:00+00:00,72.64937552658141
2024-10-21 14:00:00+00:00,178.1517570658665
2024-10-21 15:00:00+00:00,178.82046256000024
2024-10-21 16:00:00+00:00,174.33232132781674
2024-10-21 17:00:00+00:00,197.08640496837245
2024-10-21 18:00:00+00:00,195.92343487576133
2024-10-21 19:00:00+00:00,209.6474965614003
2024-10-22 13:00:00+00:00,345.140160174476
2024-10-22 14:00:00+00:00,348.44728231655216
2024-10-22 16:00:00+00:00,343.83524780503603
2024-10-22 17:00:00+00:00,331.01050364219725
2024-10-22 18:00:00+00:00,340.7144179890366
2024-10-22 19:00:00+00:00,363.20495693073775
2024-10-23 13:00:00+00:00,383.90647750990144
2024-10-23 14:00:00+00:00,407.9918622004127
2024-10-23 15:00:00+00:00,404.74863184703895
2024-10-23 16:00:00+00:00,398.58135889399796
2024-10-23 17:00:00+00:00,429.23578102657075
2024-10-23 18:00:00+00:00,391.3043348309216
2024-10-23 19:00:00+00:00,380.5425558558877
2024-10-24 13:00:00+00:00,336.75148279919216
2024-10-24 14:00:00+00:00,326.3250370110578
2024-10-24 15:00:00+00:00,347.5987307195235
2024-10-24 16:00:00+00:00,307.8317609048567
2024-10-24 17:00:00+00:00,309.6907387286111
2024-10-24 18:00:00+00:00,287.12971981772097
2024-10-25 13:00:00+00:00,278.88891043447666
2024-10-25 15:00:00+00:00,347.5816640604782
2024-10-25 16:00:00+00:00,349.0825840367326
2024-10-25 19:00:00+00:00,366.57018710360956
2024-10-28 13:00:00+00:00,254.48767318391697
2024-10-28 14:00:00+00:00,295.6446120375141
2024-10-28 15:00:00+00:00,292.6996720599719
2024-10-28 16:00:00+00:00,305.20096279716455
2024-10-28 17:00:00+00:00,317.5419549264312
2024-10-28 18:00:00+00:00,299.1824045245393
2024-10-28 19:00:00+00:00,295.3637567973755
2024-10-29 13:00:00+00:00,349.8735484519101
2024-10-29 14:00:00+00:00,311.55837666027287
2024-10-29 15:00:00+00:00,305.61922541594475
2024-10-29 16:00:00+00:00,301.4093503558094
2024-10-29 17:00:00+00:00,322.2274713027487
2024-10-29 18:00:00+00:00,330.8421738570045
2024-10-29 19:00:00+00:00,334.0203236929135
2024-10-30 13:00:00+00:00,419.0649739438941
2024-10-30 14:00:00+00:00,473.6122258891031
2024-10-30 15:00:00+00:00,454.6259167307002
2024-10-30 16:00:00+00:00,447.5971410567709
2024-10-30 17:00:00+00:00,439.6310173162158
2024-10-30 18:00:00+00:00,480.6503910043334
2024-10-30 19:00:00+00:00,491.8395351380166
2024-10-31 13:00:00+00:00,475.92904903660263
2024-10-31 15:00:00+00:00,479.089553028003
2024-10-31 18:00:00+00:00,482.93334833665705
2024-10-31 19:00:00+00:00,546.2044020186307
2024-11-01 13:00:00+00:00,513.2377933334311
2024-11-01 15:00:00+00:00,559.3499218760834
2024-11-01 17:00:00+00:00,500.67050844238366
2024-11-01 18:00:00+00:00,498.03965228881117
2024-11-01 19:00:00+00:00,522.754135166171
2024-11-04 14:00:00+00:00,412.2627445086237
2024-11-04 16:00:00+00:00,489.67188960484543
2024-11-04 18:00:00+00:00,521.3625228568739
2024-11-04 19:00:00+00:00,511.7063286950173
2024-11-04 20:00:00+00:00,498.5609516213842
2024-11-05 14:00:00+00:00,579.4741902991136
2024-11-05 15:00:00+00:00,566.9362267304155
2024-11-05 16:00:00+00:00,548.5923757912196
2024-11-05 18:00:00+00:00,533.5946012595108
2024-11-05 19:00:00+00:00,505.14379006365607
2024-11-05 20:00:00+00:00,515.8104834103287
2024-11-06 14:00:00+00:00,374.9871307592637
2024-11-06 15:00:00+00:00,390.1105594962395
2024-11-06 16:00:00+00:00,402.41005773633464
2024-11-06 17:00:00+00:00,370.47462995647606
2024-11-06 19:00:00+00:00,372.1731004572246
2024-11-06 20:00:00+00:00,396.87859748764293
2024-11-07 14:00:00+00:00,339.0762109470029
2024-11-07 15:00:00+00:00,350.1593163609407
2024-11-07 17:00:00+00:00,338.8357171895536
2024-11-07 18:00:00+00:00,342.7444510583675
2024-11-07 19:00:00+00:00,358.6258247427498
2024-11-08 14:00:00+00:00,390.09551184263967
2024-11-08 15:00:00+00:00,371.7981345997604
2024-11-08 16:00:00+00:00,358.5472057253386
2024-11-08 17:00:00+00:00,355.6318901016964
2024-11-08 18:00:00+00:00,374.09578628795305
2024-11-08 19:00:00+00:00,378.35056713336047
2024-11-08 20:00:00+00:00,393.8038886219441
2024-11-11 14:00:00+00:00,346.70954145544613
2024-11-11 15:00:00+00:00,336.3700214949005
2024-11-11 18:00:00+00:00,354.7234789713413
2024-11-11 19:00:00+00:00,369.37178745182
2024-11-11 20:00:00+00:00,355.3921844654741
2024-11-12 14:00:00+00:00,451.61893411275423
2024-11-12 15:00:00+00:00,508.2771107069241
2024-11-12 16:00:00+00:00,536.7246555628826
2024-11-12 17:00:00+00:00,550.3521848836898
2024-11-12 18:00:00+00:00,551.7130500766912
2024-11-12 19:00:00+00:00,564.065458923225
2024-11-12 20:00:00+00:00,592.3363849079187
2024-11-13 14:00:00+00:00,530.2639191575317
2024-11-13 15:00:00+00:00,512.2824781045475
2024-11-13 17:00:00+00:00,520.4727743575671
2024-11-13 18:00:00+00:00,525.573668260323
2024-11-13 19:00:00+00:00,499.08040259839186
2024-11-13 20:00:00+00:00,475.47984504374244
2024-11-14 15:00:00+00:00,511.68545993448413
2024-11-14 16:00:00+00:00,522.7742392854548
2024-11-14 17:00:00+00:00,491.42696302354057
2024-11-14 18:00:00+00:00,480.20795941506213
2024-11-14 19:00:00+00:00,469.80085229647597
2024-11-14 20:00:00+00:00,466.55105017431043
2024-11-15 14:00:00+00:00,486.2091253999518
2024-11-15 15:00:00+00:00,494.03592390139113
2024-11-15 16:00:00+00:00,501.7414273144059
2024-11-15 17:00:00+00:00,504.2678640233404
2024-11-15 18:00:00+00:00,519.3745174890992
2024-11-15 19:00:00+00:00,532.8838621498403
2024-11-15 20:00:00+00:00,517.9415880346165
2024-11-18 14:00:00+00:00,385.70992616503224
2024-11-18 15:00:00+00:00,454.6981211548763
2024-11-18 17:00:00+00:00,430.9771156111074
2024-11-18 18:00:00+00:00,462.9566761235867
2024-11-18 19:00:00+00:00,493.74088516926815
2024-11-18 20:00:00+00:00,470.51737156594885
2024-11-19 14:00:00+00:00,595.8118279028737
2024-11-19 15:00:00+00:00,605.8942809479132
2024-11-19 16:00:00+00:00,609.667537609885
2024-11-19 17:00:00+00:00,630.5886371448407
2024-11-19 18:00:00+00:00,620.3476956718981
2024-11-19 19:00:00+00:00,631.0104027686835
2024-11-19 20:00:00+00:00,637.0635561898772
2024-11-20 14:00:00+00:00,668.8392546824996
2024-11-20 15:00:00+00:00,697.9624717637458
2024-11-20 16:00:00+00:00,676.6652651730531
2024-11-20 17:00:00+00:00,677.373988716918
2024-11-20 18:00:00+00:00,664.6058667401383
2024-11-20 19:00:00+00:00,660.4989115905252
2024-11-20 20:00:00+00:00,645.4548898818465
2024-11-21 14:00:00+00:00,665.1557579817709
2024-11-21 15:00:00+00:00,612.3654100864534
2024-11-21 16:00:00+00:00,607.4272160874268
2024-11-21 17:00:00+00:00,576.7677944681418
2024-11-21 18:00:00+00:00,591.5288552841214
2024-11-21 19:00:00+00:00,587.3287539714714
2024-11-21 20:00:00+00:00,567.4765730002213
2024-11-22 14:00:00+00:00,572.1484670450637
2024-11-22 15:00:00+00:00,590.5388232407417
2024-11-22 16:00:00+00:00,580.8935091018368
2024-11-22 18:00:00+00:00,591.4544686051674
2024-11-22 19:00:00+00:00,594.8991644838258
2024-11-25 14:00:00+00:00,408.19711763219584
2024-11-25 15:00:00+00:00,386.79314309870614
2024-11-25 16:00:00+00:00,422.9970151683626
2024-11-25 17:00:00+00:00,415.3877679358212
2024-11-25 18:00:00+00:00,430.44410290540196
2024-11-25 19:00:00+00:00,403.30094991091227
2024-11-25 20:00:00+00:00,390.8992515599411
2024-11-26 14:00:00+00:00,544.454945825062
2024-11-26 15:00:00+00:00,547.6805203332916
2024-11-26 16:00:00+00:00,533.4144119542891
2024-11-26 17:00:00+00:00,535.4463548243152
2024-11-26 18:00:00+00:00,525.4869483702321
2024-11-26 19:00:00+00:00,563.7875348904643
2024-11-26 20:00:00+00:00,547.8963287811054
2024-11-27 14:00:00+00:00,482.7618700576411
2024-11-27 15:00:00+00:00,495.77242316120737
2024-11-27 16:00:00+00:00,499.49146971036095
2024-11-27 17:00:00+00:00,520.3417545246161
2024-11-27 18:00:00+00:00,542.2050227729368
2024-11-27 19:00:00+00:00,537.0012089596577
2024-11-27 20:00:00+00:00,534.3054722918056
2024-11-29 14:00:00+00:00,495.25120282725004
2024-11-29 15:00:00+00:00,492.19483947482547
2024-11-29 16:00:00+00:00,457.534630600632
2024-12-02 14:00:00+00:00,471.3207070268327
2024-12-02 15:00:00+00:00,456.00369305221915
2024-12-02 17:00:00+00:00,429.8232111866064
2024-12-02 18:00:00+00:00,410.1125693391996
2024-12-02 19:00:00+00:00,375.90656603018414
2024-12-02 20:00:00+00:00,360.0738522578032
2024-12-03 14:00:00+00:00,428.952051521507
2024-12-03 15:00:00+00:00,415.1732680068655
2024-12-03 16:00:00+00:00,368.69030631459066
2024-12-03 17:00:00+00:00,356.8154487052207
2024-12-03 18:00:00+00:00,358.22080014926047
2024-12-03 19:00:00+00:00,349.17065151391057
2024-12-03 20:00:00+00:00,345.7866031794627
2024-12-04 14:00:00+00:00,360.44045306897056
2024-12-04 15:00:00+00:00,320.02998346743556
2024-12-04 16:00:00+00:00,312.2646791985868
2024-12-04 17:00:00+00:00,334.7239505160221
2024-12-04 18:00:00+00:00,324.75815651624754
2024-12-04 19:00:00+00:00,308.9698703174107
2024-12-05 14:00:00+00:00,422.2138558322429
2024-12-05 15:00:00+00:00,411.66272875389
2024-12-05 16:00:00+00:00,417.1548499896154
2024-12-05 17:00:00+00:00,341.8720586001375
2024-12-05 18:00:00+00:00,332.9529230252026
2024-12-05 19:00:00+00:00,378.08394658358236
2024-12-05 20:00:00+00:00,356.86757289502833
2024-12-06 14:00:00+00:00,350.0153744771855
2024-12-06 15:00:00+00:00,404.20716710677675
2024-12-06 16:00:00+00:00,380.56687669923605
2024-12-06 17:00:00+00:00,363.2404187179178
2024-12-06 18:00:00+00:00,371.5038356175207
2024-12-06 20:00:00+00:00,345.8454997728582
2024-12-09 14:00:00+00:00,189.55353282270528
2024-12-09 15:00:00+00:00,184.54422703672023
2024-12-09 16:00:00+00:00,167.00704105744276
2024-12-09 17:00:00+00:00,166.86100209223136
2024-12-09 19:00:00+00:00,233.39971256630088
2024-12-09 20:00:00+00:00,278.1000434417287
2024-12-10 14:00:00+00:00,450.0683311931184
2024-12-10 15:00:00+00:00,383.7949174417052
2024-12-10 16:00:00+00:00,370.50102793104605
2024-12-10 18:00:00+00:00,340.8908391628805
2024-12-10 19:00:00+00:00,341.3022518537764
2024-12-11 14:00:00+00:00,440.95934571484923
2024-12-11 15:00:00+00:00,449.8167558009387
2024-12-11 16:00:00+00:00,452.4526329354644
2024-12-11 17:00:00+00:00,464.8617825061034
2024-12-11 18:00:00+00:00,520.2557348048517
2024-12-11 19:00:00+00:00,527.1927524850626
2024-12-11 20:00:00+00:00,545.0737168885421
2024-12-12 14:00:00+00:00,499.5054957465364
2024-12-12 15:00:00+00:00,469.39667383964877
2024-12-12 16:00:00+00:00,466.5373697170591
2024-12-12 18:00:00+00:00,453.5754271915056
2024-12-12 19:00:00+00:00,431.84414171606994
2024-12-12 20:00:00+00:00,415.77901521902663
2024-12-13 16:00:00+00:00,449.84536732920424
2024-12-13 17:00:00+00:00,458.54898348735856
2024-12-13 19:00:00+00:00,411.6071215092538
2024-12-13 20:00:00+00:00,389.3276376172221
2024-12-16 14:00:00+00:00,351.90596550413164
2024-12-16 15:00:00+00:00,408.41490690991077
2024-12-16 16:00:00+00:00,399.5611776458566
2024-12-16 17:00:00+00:00,410.75037218651056
2024-12-16 18:00:00+00:00,425.66659390609055
2024-12-16 19:00:00+00:00,420.5234276370247
2024-12-16 20:00:00+00:00,471.5205829571259
2024-12-17 14:00:00+00:00,498.422663119044
2024-12-17 15:00:00+00:00,506.9618066772773
2024-12-17 16:00:00+00:00,490.78623182633066
2024-12-17 17:00:00+00:00,477.3535618405933
2024-12-17 20:00:00+00:00,509.9937813461854
2024-12-18 14:00:00+00:00,423.17304390629215
2024-12-18 15:00:00+00:00,417.5345170293897
2024-12-18 16:00:00+00:00,353.58731110971485
2024-12-18 18:00:00+00:00,393.0521762414162
2024-12-18 19:00:00+00:00,446.8731357213848
2024-12-18 20:00:00+00:00,519.7172720705437
2024-12-19 14:00:00+00:00,574.9717900457123
2024-12-19 15:00:00+00:00,597.5501608124847
2024-12-19 16:00:00+00:00,573.7890194530742
2024-12-19 17:00:00+00:00,581.8829431827298
2024-12-19 18:00:00+00:00,619.6066618530092
2024-12-19 19:00:00+00:00,612.7446310101897
2024-12-19 20:00:00+00:00,622.610891301233
2024-12-20 14:00:00+00:00,655.5419407945024
2024-12-20 15:00:00+00:00,576.2673129738522
2024-12-20 16:00:00+00:00,534.5664581485049
2024-12-20 17:00:00+00:00,569.7090215132612
2024-12-20 18:00:00+00:00,559.7110389639544
2024-12-20 19:00:00+00:00,599.8922300991048
2024-12-20 20:00:00+00:00,612.927980118149
2024-12-23 14:00:00+00:00,649.5169362986943
2024-12-23 15:00:00+00:00,659.9240434172815
2024-12-23 16:00:00+00:00,624.7846738253702
2024-12-23 17:00:00+00:00,622.7797226869661
2024-12-23 18:00:00+00:00,619.8793866160298
2024-12-23 19:00:00+00:00,607.1166288629184
2024-12-23 20:00:00+00:00,607.1166288629184
2024-12-24 14:00:00+00:00,604.1269265603221
2024-12-24 15:00:00+00:00,585.7723568381116
2024-12-24 16:00:00+00:00,556.4100529757666
2024-12-26 14:00:00+00:00,565.3064079038671
2024-12-26 15:00:00+00:00,527.2779088354132
2024-12-26 16:00:00+00:00,546.2207733104387
2024-12-26 17:00:00+00:00,524.2318596486417
2024-12-26 18:00:00+00:00,534.02074111955
2024-12-26 19:00:00+00:00,543.3418630153891
2024-12-26 20:00:00+00:00,525.4158123127787
2024-12-27 14:00:00+00:00,543.7297628240569
2024-12-27 15:00:00+00:00,560.88282092566
2024-12-27 16:00:00+00:00,594.684125269875
2024-12-27 17:00:00+00:00,596.6974759863449
2024-12-27 18:00:00+00:00,574.2569641529944
2024-12-27 19:00:00+00:00,584.674365527037
2024-12-27 20:00:00+00:00,579.5807645358411
2024-12-30 14:00:00+00:00,687.751217062418
2024-12-30 15:00:00+00:00,647.5390274191718
2024-12-30 16:00:00+00:00,623.9683702924409
2024-12-30 17:00:00+00:00,637.5992858150411
2024-12-30 18:00:00+00:00,631.624894195079
2024-12-30 19:00:00+00:00,640.0544701582955
2024-12-30 20:00:00+00:00,659.4373979107688
2024-12-31 14:00:00+00:00,621.1512798586728
2024-12-31 15:00:00+00:00,630.6301520572288
2024-12-31 16:00:00+00:00,671.0699516930075
2024-12-31 17:00:00+00:00,665.6975709382807
2024-12-31 18:00:00+00:00,667.6342416612898
2024-12-31 19:00:00+00:00,656.0930824292152
2025-01-02 14:00:00+00:00,797.8560557091257
2025-01-02 15:00:00+00:00,780.9683713332053
2025-01-02 16:00:00+00:00,795.5381102406045
2025-01-02 17:00:00+00:00,840.2407974336628
2025-01-02 18:00:00+00:00,862.0815827942628
2025-01-02 19:00:00+00:00,865.3255178787099
2025-01-02 20:00:00+00:00,916.1064217673236
2025-01-03 14:00:00+00:00,996.1121541288526
2025-01-03 15:00:00+00:00,1029.9335851535009
2025-01-03 16:00:00+00:00,972.4978574394625
2025-01-03 17:00:00+00:00,956.753210803287
2025-01-03 18:00:00+00:00,952.706382689915
2025-01-03 19:00:00+00:00,952.0813167584424
2025-01-03 20:00:00+00:00,990.1900695435689
2025-01-06 14:00:00+00:00,952.4492066899468
2025-01-06 15:00:00+00:00,931.2803205963257
2025-01-06 18:00:00+00:00,922.6762384779316
2025-01-06 19:00:00+00:00,945.9092904072572
2025-01-06 20:00:00+00:00,951.7818097146701
2025-01-07 14:00:00+00:00,759.1242149040582
2025-01-07 15:00:00+00:00,794.7540440547024
2025-01-07 16:00:00+00:00,837.0838715212901
2025-01-07 17:00:00+00:00,850.7041079305365
2025-01-07 18:00:00+00:00,874.3399391492482
2025-01-07 19:00:00+00:00,933.2414303197183
2025-01-07 20:00:00+00:00,923.6000228905775
2025-01-08 14:00:00+00:00,970.7046061867555
2025-01-08 15:00:00+00:00,932.1911544368296
2025-01-08 16:00:00+00:00,947.9710503554353
2025-01-08 17:00:00+00:00,926.58882037902
2025-01-08 18:00:00+00:00,918.959722650405
2025-01-08 19:00:00+00:00,920.0364546336398
2025-01-08 20:00:00+00:00,925.467660822241
2025-01-10 14:00:00+00:00,997.0311856950709
2025-01-10 15:00:00+00:00,1013.4386121101686
2025-01-10 16:00:00+00:00,1041.5110909263324
2025-01-10 17:00:00+00:00,1030.98855575704
2025-01-10 19:00:00+00:00,1050.9743450776168
2025-01-10 20:00:00+00:00,1080.7050996008143
2025-01-13 14:00:00+00:00,1022.6759578857498
2025-01-13 15:00:00+00:00,993.0037543770246
2025-01-13 16:00:00+00:00,1009.3415475113114
2025-01-13 17:00:00+00:00,1004.9563261896521
2025-01-13 18:00:00+00:00,1017.7194025032624
2025-01-13 19:00:00+00:00,1040.0348558084013
2025-01-13 20:00:00+00:00,1009.1654132389017
2025-01-14 14:00:00+00:00,919.7605772753632
2025-01-14 15:00:00+00:00,940.361658779931
2025-01-14 16:00:00+00:00,950.8059592379936
2025-01-14 17:00:00+00:00,931.2072230377075
2025-01-14 18:00:00+00:00,931.0794817261002
2025-01-14 19:00:00+00:00,915.5445817310791
2025-01-14 20:00:00+00:00,913.4419914509954
2025-01-15 14:00:00+00:00,858.5104928501103
2025-01-15 15:00:00+00:00,876.0057921922764
2025-01-15 16:00:00+00:00,870.4481532109259
2025-01-15 18:00:00+00:00,852.485311519861
2025-01-15 19:00:00+00:00,839.6829977482978
2025-01-15 20:00:00+00:00,842.6226142650529
2025-01-16 14:00:00+00:00,815.8614940415129
2025-01-16 15:00:00+00:00,787.4155838848145
2025-01-16 16:00:00+00:00,765.1224782130266
2025-01-16 17:00:00+00:00,762.8151618618136
2025-01-16 19:00:00+00:00,748.4535261045171
2025-01-16 20:00:00+00:00,705.2046670717137
2025-01-17 14:00:00+00:00,636.6187987434918
2025-01-17 15:00:00+00:00,660.8047480542118
2025-01-17 16:00:00+00:00,617.6229827888025
2025-01-17 18:00:00+00:00,642.4647451472898
2025-01-17 19:00:00+00:00,648.792316708257
2025-01-17 20:00:00+00:00,660.233883443767
2025-01-21 14:00:00+00:00,502.6989607389565
2025-01-21 15:00:00+00:00,465.45244000811016
2025-01-21 16:00:00+00:00,456.30581768541975
2025-01-21 17:00:00+00:00,490.9693540839149
2025-01-21 19:00:00+00:00,485.0998947978899
2025-01-21 20:00:00+00:00,457.5495033251851
2025-01-22 14:00:00+00:00,480.0935142545221
2025-01-22 16:00:00+00:00,490.3319486759618
2025-01-22 17:00:00+00:00,495.10288213714
2025-01-22 19:00:00+00:00,501.6611149202387
2025-01-22 20:00:00+00:00,496.4175682540662
2025-01-23 14:00:00+00:00,469.9281801889862
2025-01-23 15:00:00+00:00,441.2682421999229
2025-01-23 16:00:00+00:00,447.3538942399422
2025-01-23 17:00:00+00:00,453.8660066244562
2025-01-23 18:00:00+00:00,461.1600973465759
2025-01-23 19:00:00+00:00,458.0823865852666
2025-01-23 20:00:00+00:00,471.0587975789555
2025-01-24 14:00:00+00:00,405.42819567551004
2025-01-24 15:00:00+00:00,402.2194844797695
2025-01-24 16:00:00+00:00,420.2317146142629
2025-01-24 17:00:00+00:00,485.47429026168135
2025-01-24 18:00:00+00:00,481.6868508496791
2025-01-24 19:00:00+00:00,514.5383765113818
2025-01-24 20:00:00+00:00,520.3138429459898
2025-01-27 14:00:00+00:00,493.72612260216187
2025-01-27 15:00:00+00:00,438.58618598932037
2025-01-27 16:00:00+00:00,405.1761676555662
2025-01-27 17:00:00+00:00,419.5630091201292
2025-01-27 18:00:00+00:00,407.24293168218065
2025-01-27 19:00:00+00:00,427.89663848600526
2025-01-27 20:00:00+00:00,420.9400942837986
2025-01-28 14:00:00+00:00,476.12034293499966
2025-01-28 15:00:00+00:00,470.4413501877312
2025-01-28 16:00:00+00:00,514.8268007370978
2025-01-28 17:00:00+00:00,499.1115340208677
2025-01-28 18:00:00+00:00,521.3003118229037
2025-01-28 19:00:00+00:00,495.83821901647514
2025-01-29 14:00:00+00:00,510.07530723500753
2025-01-29 15:00:00+00:00,496.8081243794207
2025-01-29 16:00:00+00:00,513.0950437169796
2025-01-29 17:00:00+00:00,522.378451765369
2025-01-29 18:00:00+00:00,559.8993319584994
2025-01-29 19:00:00+00:00,555.0330646651314
2025-01-29 20:00:00+00:00,556.343902749784
2025-01-30 14:00:00+00:00,579.1077192645998
2025-01-30 15:00:00+00:00,551.7024296408282
2025-01-30 16:00:00+00:00,564.9702825359283
2025-01-30 18:00:00+00:00,512.8445159181103
2025-01-30 19:00:00+00:00,501.98203776478215
2025-01-30 20:00:00+00:00,538.3850859254333
2025-01-31 14:00:00+00:00,978.3229860049768
2025-01-31 15:00:00+00:00,1046.795313986813
2025-01-31 16:00:00+00:00,1024.3546508032011
2025-01-31 17:00:00+00:00,998.2990015780682
2025-01-31 18:00:00+00:00,1003.7109277746127
2025-01-31 19:00:00+00:00,1027.411924403859
2025-01-31 20:00:00+00:00,1026.355260423566
2025-02-03 14:00:00+00:00,1180.6104805782925
2025-02-03 15:00:00+00:00,1185.50274158981
2025-02-03 16:00:00+00:00,1168.792894577448
2025-02-03 17:00:00+00:00,1204.188371939089
2025-02-03 18:00:00+00:00,1211.0940423445686
2025-02-03 19:00:00+00:00,1232.0685551896681
2025-02-03 20:00:00+00:00,1240.6200120088026
2025-02-04 16:00:00+00:00,1270.3383945936048
2025-02-04 18:00:00+00:00,1244.0408012756498
2025-02-04 20:00:00+00:00,1279.0881313710277
2025-02-05 14:00:00+00:00,1002.3662181814891
2025-02-05 15:00:00+00:00,982.9636660413616
2025-02-05 16:00:00+00:00,950.62763745254
2025-02-05 17:00:00+00:00,953.1279540559754
2025-02-05 19:00:00+00:00,942.1922546932562
2025-02-05 20:00:00+00:00,913.0405043804409
2025-02-06 14:00:00+00:00,861.9584006230144
2025-02-06 15:00:00+00:00,781.7624692256418
2025-02-06 17:00:00+00:00,665.8856084718974
2025-02-06 18:00:00+00:00,715.5557057366798
2025-02-06 19:00:00+00:00,712.8971037308129
2025-02-06 20:00:00+00:00,681.7012555852339
2025-02-07 14:00:00+00:00,675.8510181654893
2025-02-07 15:00:00+00:00,750.3695915148547
2025-02-07 16:00:00+00:00,738.2298806877742
2025-02-07 17:00:00+00:00,740.5965360643426
2025-02-07 19:00:00+00:00,752.9243682443299
2025-02-07 20:00:00+00:00,736.4836551995198
2025-02-10 14:00:00+00:00,734.3352702598836
2025-02-10 15:00:00+00:00,767.6593766646666
2025-02-10 19:00:00+00:00,781.8714510531653
2025-02-10 20:00:00+00:00,793.1617635948419
2025-02-11 14:00:00+00:00,780.1303045917463
2025-02-11 16:00:00+00:00,768.4976921320152
2025-02-11 17:00:00+00:00,776.199809343237
2025-02-11 19:00:00+00:00,780.363564004786
2025-02-11 20:00:00+00:00,760.8665753979546
2025-02-12 14:00:00+00:00,829.3683419772294
2025-02-12 15:00:00+00:00,864.7134176387307
2025-02-12 16:00:00+00:00,793.0981141550182
2025-02-12 17:00:00+00:00,767.2447852238303
2025-02-12 18:00:00+00:00,740.6696136727238
2025-02-12 19:00:00+00:00,756.2173475469608
2025-02-12 20:00:00+00:00,772.2833207323824
2025-02-13 14:00:00+00:00,615.2016987785944
2025-02-13 15:00:00+00:00,606.3523696149507
2025-02-13 16:00:00+00:00,599.0686318257789
2025-02-13 17:00:00+00:00,585.3138230238461
2025-02-13 18:00:00+00:00,567.1071517606205
2025-02-13 19:00:00+00:00,555.7258386190526
2025-02-13 20:00:00+00:00,558.3675827912966
2025-02-14 14:00:00+00:00,545.8545489661907
2025-02-14 15:00:00+00:00,556.7726114968767
2025-02-14 16:00:00+00:00,550.2329459895993
2025-02-14 17:00:00+00:00,546.6359571308086
2025-02-14 18:00:00+00:00,549.3747541758564
2025-02-14 19:00:00+00:00,547.9467952154592
2025-02-14 20:00:00+00:00,569.9459352525048
2025-02-18 14:00:00+00:00,542.0008621441417
2025-02-18 15:00:00+00:00,519.6359602046075
2025-02-18 16:00:00+00:00,521.0173286349719
2025-02-18 17:00:00+00:00,529.3705309998861
2025-02-18 18:00:00+00:00,530.9557285468218
2025-02-18 19:00:00+00:00,526.9119604548398
2025-02-18 20:00:00+00:00,488.4622749480053
2025-02-19 14:00:00+00:00,633.0786271870106
2025-02-19 15:00:00+00:00,694.9477156267376
2025-02-19 16:00:00+00:00,719.999468839649
2025-02-19 17:00:00+00:00,707.867938265044
2025-02-19 18:00:00+00:00,667.5542365601639
2025-02-19 19:00:00+00:00,657.9259890803033
2025-02-19 20:00:00+00:00,652.0098302102294
2025-02-20 14:00:00+00:00,696.6128407099394
2025-02-20 15:00:00+00:00,652.4008487177792
2025-02-20 16:00:00+00:00,622.8035857900891
2025-02-20 17:00:00+00:00,601.6276995712034
2025-02-20 18:00:00+00:00,597.5266114593106
2025-02-20 19:00:00+00:00,604.1019695789469
2025-02-21 14:00:00+00:00,604.0217158622726
2025-02-21 15:00:00+00:00,604.463028981086
2025-02-21 16:00:00+00:00,653.5694868371302
2025-02-21 17:00:00+00:00,709.3269879953792
2025-02-21 18:00:00+00:00,812.5934680625862
2025-02-21 19:00:00+00:00,804.9551170944598
2025-02-21 20:00:00+00:00,797.2692198539052
2025-02-24 14:00:00+00:00,791.08182022043
2025-02-24 15:00:00+00:00,817.6421209722658
2025-02-24 16:00:00+00:00,847.4874568577903
2025-02-24 17:00:00+00:00,851.4039319701247
2025-02-24 18:00:00+00:00,857.2194709365523
2025-02-24 19:00:00+00:00,872.3649858998347
2025-02-24 20:00:00+00:00,877.5599321135787
2025-02-25 14:00:00+00:00,868.0821508166657
2025-02-25 15:00:00+00:00,838.3068511746994
2025-02-25 16:00:00+00:00,830.3911982681257
2025-02-25 17:00:00+00:00,822.0508551761511
2025-02-25 18:00:00+00:00,858.5406032766602
2025-02-25 19:00:00+00:00,809.7367034534142
2025-02-25 20:00:00+00:00,826.5286434753868
2025-02-26 14:00:00+00:00,784.8518132484483
2025-02-26 15:00:00+00:00,745.8978451823864
2025-02-26 16:00:00+00:00,762.1274445000328
2025-02-26 17:00:00+00:00,804.6670771749252
2025-02-26 18:00:00+00:00,768.3943098392973
2025-02-26 19:00:00+00:00,766.7890442894217
2025-02-26 20:00:00+00:00,777.8922178166433
2025-02-27 14:00:00+00:00,770.8828394897535
2025-02-27 15:00:00+00:00,782.5811785205311
2025-02-27 16:00:00+00:00,804.5175700174655
2025-02-27 17:00:00+00:00,825.8760782915127
2025-02-27 18:00:00+00:00,811.9846221017788
2025-02-27 19:00:00+00:00,863.5777309363227
2025-02-27 20:00:00+00:00,862.6450189128548
2025-02-28 14:00:00+00:00,801.4376692361058
2025-02-28 15:00:00+00:00,853.5226974832774
2025-02-28 16:00:00+00:00,849.7365483749392
2025-02-28 17:00:00+00:00,939.5987086025348
2025-02-28 18:00:00+00:00,948.2211658988302
2025-02-28 19:00:00+00:00,926.3954257414948
2025-02-28 20:00:00+00:00,884.8262189375209
2025-03-03 14:00:00+00:00,824.8088740874797
2025-03-03 15:00:00+00:00,895.6314700442906
2025-03-03 16:00:00+00:00,881.1840897889504
2025-03-03 17:00:00+00:00,897.7089632602
2025-03-03 18:00:00+00:00,910.6914271385259
2025-03-03 19:00:00+00:00,960.4634123302515
2025-03-03 20:00:00+00:00,963.2928747024148
2025-03-04 14:00:00+00:00,1025.922136254874
2025-03-04 15:00:00+00:00,1071.7145581152283
2025-03-04 16:00:00+00:00,1034.8897443307335
2025-03-04 17:00:00+00:00,1050.8720775976858
2025-03-04 18:00:00+00:00,1050.651341062375
2025-03-04 19:00:00+00:00,1057.8370870285228
2025-03-04 20:00:00+00:00,1147.2749421188569
2025-03-05 14:00:00+00:00,1060.058549576542
2025-03-05 15:00:00+00:00,1121.9933239347745
2025-03-05 16:00:00+00:00,1051.9411129646592
2025-03-05 17:00:00+00:00,979.3685763562987
2025-03-05 18:00:00+00:00,883.8917360130021
2025-03-05 19:00:00+00:00,821.8914613823796
2025-03-05 20:00:00+00:00,863.1539952300952
2025-03-06 14:00:00+00:00,790.6511856632565
2025-03-06 15:00:00+00:00,776.7386764443065
2025-03-06 16:00:00+00:00,816.0480544920014
2025-03-06 17:00:00+00:00,794.8115541230122
2025-03-06 18:00:00+00:00,787.413696801992
2025-03-06 19:00:00+00:00,740.4457824282443
2025-03-06 20:00:00+00:00,784.3697931783653
2025-03-07 14:00:00+00:00,871.6623233504531
2025-03-07 15:00:00+00:00,862.3587886216305
2025-03-07 17:00:00+00:00,799.5111933885389
2025-03-07 18:00:00+00:00,748.8712494383033
2025-03-07 19:00:00+00:00,786.1692638038821
2025-03-07 20:00:00+00:00,799.0027865023314
2025-03-10 13:00:00+00:00,708.9723054218571
2025-03-10 14:00:00+00:00,711.1257693883267
2025-03-10 15:00:00+00:00,720.1160584903502
2025-03-10 16:00:00+00:00,755.8739140390956
2025-03-10 17:00:00+00:00,826.2919784620344
2025-03-10 18:00:00+00:00,828.358742488647
2025-03-10 19:00:00+00:00,852.8920120667624
2025-03-11 13:00:00+00:00,976.7333037360235
2025-03-11 14:00:00+00:00,1010.2236344639423
2025-03-11 15:00:00+00:00,1049.6669735270825
2025-03-11 16:00:00+00:00,1032.2997006933588
2025-03-11 17:00:00+00:00,938.4648315284344
2025-03-11 18:00:00+00:00,916.6743452452561
2025-03-11 19:00:00+00:00,937.3632194666252
2025-03-12 13:00:00+00:00,959.1606938953032
2025-03-12 14:00:00+00:00,1004.11525755258
2025-03-12 15:00:00+00:00,1010.278356292945
2025-03-12 16:00:00+00:00,1011.9306476072737
2025-03-12 17:00:00+00:00,1018.0034658784189
2025-03-12 18:00:00+00:00,1043.2935080868745
2025-03-12 19:00:00+00:00,1082.5632119591673
2025-03-13 13:00:00+00:00,1016.0991408346526
2025-03-13 14:00:00+00:00,1050.3971581507376
2025-03-13 15:00:00+00:00,1063.793421183448
2025-03-13 17:00:00+00:00,1078.020810728462
2025-03-13 18:00:00+00:00,1088.8390630350293
2025-03-13 19:00:00+00:00,1064.041207742116
2025-03-14 13:00:00+00:00,1020.8474548444966
2025-03-14 14:00:00+00:00,950.6062351805573
2025-03-14 15:00:00+00:00,1000.7347122231956
2025-03-14 16:00:00+00:00,956.1313755430804
2025-03-14 17:00:00+00:00,968.7407832042254
2025-03-14 18:00:00+00:00,945.4563551853948
2025-03-14 19:00:00+00:00,938.6536633679297
2025-03-17 13:00:00+00:00,945.8784464379278
2025-03-17 14:00:00+00:00,988.4949466276987
2025-03-17 15:00:00+00:00,998.4778072865156
2025-03-17 16:00:00+00:00,981.4901752310565
2025-03-17 17:00:00+00:00,946.6103976671839
2025-03-17 18:00:00+00:00,925.2004387409903
2025-03-17 19:00:00+00:00,929.8496665919848
2025-03-18 13:00:00+00:00,949.8850211904335
2025-03-18 14:00:00+00:00,987.3823885013358
2025-03-18 15:00:00+00:00,972.9980865501904
2025-03-18 16:00:00+00:00,968.8250015662022
2025-03-18 17:00:00+00:00,952.4504183557692
2025-03-18 18:00:00+00:00,955.3528415330449
2025-03-18 19:00:00+00:00,948.7176825575756
2025-03-19 13:00:00+00:00,949.5603084393936
2025-03-19 14:00:00+00:00,946.4565452824404
2025-03-19 15:00:00+00:00,941.1348317852462
2025-03-19 16:00:00+00:00,990.8022629789118
2025-03-19 17:00:00+00:00,1023.9443680735646
2025-03-19 18:00:00+00:00,979.6487361629353
2025-03-19 19:00:00+00:00,988.8624522530207
2025-03-20 13:00:00+00:00,1011.4973373348938
2025-03-20 14:00:00+00:00,1018.407426166322
2025-03-20 15:00:00+00:00,1020.815399209345
2025-03-20 16:00:00+00:00,1060.5815904365274
2025-03-20 17:00:00+00:00,1088.1053001418402
2025-03-20 18:00:00+00:00,1098.831755567109
2025-03-20 19:00:00+00:00,1100.0891803416162
2025-03-21 13:00:00+00:00,1178.2884433753816
2025-03-21 14:00:00+00:00,1164.576753628135
2025-03-21 15:00:00+00:00,1152.0481019764434
2025-03-21 16:00:00+00:00,1096.325313120946
2025-03-21 17:00:00+00:00,1111.5491809325206
2025-03-21 18:00:00+00:00,1114.4678827579557
2025-03-21 19:00:00+00:00,1123.3269856690856
2025-03-24 13:00:00+00:00,954.8336974077072
2025-03-24 14:00:00+00:00,921.4113658130527
2025-03-24 15:00:00+00:00,918.6079558365323
2025-03-24 16:00:00+00:00,976.7521218975995
2025-03-24 17:00:00+00:00,1019.5263225043876
2025-03-24 18:00:00+00:00,958.2177457421549
2025-03-24 19:00:00+00:00,973.9864257685306
2025-03-25 13:00:00+00:00,1020.1377079786117
2025-03-25 14:00:00+00:00,1018.7038233030028
2025-03-25 15:00:00+00:00,996.9353444880877
2025-03-25 16:00:00+00:00,1024.3099897786922
2025-03-25 17:00:00+00:00,1019.6404420362368
2025-03-25 18:00:00+00:00,1027.557611655478
2025-03-25 19:00:00+00:00,1053.678853825766
2025-03-26 13:00:00+00:00,993.4761214637997
2025-03-26 14:00:00+00:00,1053.5606187587302
2025-03-26 15:00:00+00:00,1060.8345828004158
2025-03-26 16:00:00+00:00,1130.670641669077
2025-03-26 17:00:00+00:00,1098.6253952380912
2025-03-26 18:00:00+00:00,1070.8076110342572
2025-03-26 19:00:00+00:00,1053.2157793272563
2025-03-27 13:00:00+00:00,1364.2368944213304
2025-03-27 14:00:00+00:00,1352.8084289576054
2025-03-27 15:00:00+00:00,1403.1483545892613
2025-03-27 16:00:00+00:00,1447.9885225303303
2025-03-27 17:00:00+00:00,1422.665135014671
2025-03-27 18:00:00+00:00,1324.9470638686043
2025-03-27 19:00:00+00:00,1301.958412296153
2025-03-28 13:00:00+00:00,1278.575682194762
2025-03-28 14:00:00+00:00,1298.069402365708
2025-03-28 15:00:00+00:00,1316.4237559748558
2025-03-28 16:00:00+00:00,1369.52180863966
2025-03-28 17:00:00+00:00,1368.11006964993
2025-03-28 18:00:00+00:00,1347.3752624410538
2025-03-28 19:00:00+00:00,1360.6853132448878
2025-03-31 13:00:00+00:00,1404.6238511406364
2025-03-31 14:00:00+00:00,1377.185039465678
2025-03-31 15:00:00+00:00,1384.1765633433236
2025-03-31 16:00:00+00:00,1372.5780842016804
2025-03-31 17:00:00+00:00,1339.4624933331513
2025-03-31 18:00:00+00:00,1274.4054813100288
2025-03-31 19:00:00+00:00,1231.5210678811584
2025-04-01 13:00:00+00:00,1331.8971618476294
2025-04-01 14:00:00+00:00,1257.4460084460643
2025-04-01 15:00:00+00:00,1271.6692237783975
2025-04-01 16:00:00+00:00,1295.2510218489601
2025-04-01 17:00:00+00:00,1309.2874243472456
2025-04-01 18:00:00+00:00,1285.1509816369062
2025-04-01 19:00:00+00:00,1256.215424078086
2025-04-02 13:00:00+00:00,1306.0452407653302
2025-04-02 14:00:00+00:00,1278.964998644109
2025-04-02 16:00:00+00:00,1236.11551522566
2025-04-02 17:00:00+00:00,1259.8139723414874
2025-04-02 18:00:00+00:00,1229.5709042223173
2025-04-02 19:00:00+00:00,1184.526313100882
2025-04-03 13:00:00+00:00,1485.3255331075302
2025-04-03 14:00:00+00:00,1496.3612195288094
2025-04-03 15:00:00+00:00,1407.4929295624252
2025-04-03 16:00:00+00:00,1443.910504868705
2025-04-03 17:00:00+00:00,1505.7437084878125
2025-04-03 18:00:00+00:00,1525.6193436637984
2025-04-03 19:00:00+00:00,1543.029962071553
2025-04-04 13:00:00+00:00,1818.8820189732673
2025-04-04 14:00:00+00:00,1773.5325300986747
2025-04-04 15:00:00+00:00,1794.561823450266
2025-04-04 16:00:00+00:00,1763.754395621326
2025-04-04 17:00:00+00:00,1797.1336332597152
2025-04-04 18:00:00+00:00,1756.748158189744
2025-04-04 19:00:00+00:00,1822.588181867846
2025-04-07 13:00:00+00:00,1959.6565949090614
2025-04-07 14:00:00+00:00,2062.8642477774365
2025-04-07 15:00:00+00:00,1977.8611206091423
2025-04-07 16:00:00+00:00,1927.5117560918547
2025-04-07 17:00:00+00:00,1957.403538556371
2025-04-07 18:00:00+00:00,1993.0212808551155
2025-04-07 19:00:00+00:00,1965.577716002698
2025-04-08 13:00:00+00:00,1974.2416576544194
2025-04-08 14:00:00+00:00,2068.782996046629
2025-04-08 15:00:00+00:00,2080.782543738008
2025-04-08 16:00:00+00:00,2191.481200090443
2025-04-08 17:00:00+00:00,2238.1275028284517
2025-04-08 18:00:00+00:00,2317.375054821096
2025-04-08 19:00:00+00:00,2309.9173379667477
2025-04-09 13:00:00+00:00,2207.1361745557792
2025-04-09 14:00:00+00:00,2164.0051952966915
2025-04-09 15:00:00+00:00,2139.645325598289
2025-04-09 16:00:00+00:00,1847.770030259662
2025-04-09 17:00:00+00:00,1631.3626856985425
2025-04-09 18:00:00+00:00,1641.3794872465014
2025-04-09 19:00:00+00:00,1582.2321878702683
2025-04-10 13:00:00+00:00,1862.3713716531788
2025-04-10 14:00:00+00:00,1922.9069558144063
2025-04-10 15:00:00+00:00,2034.3107229895659
2025-04-10 16:00:00+00:00,1968.859405697476
2025-04-10 17:00:00+00:00,1857.8423304992696
2025-04-10 18:00:00+00:00,1885.5032551745128
2025-04-10 19:00:00+00:00,1874.7709147969167
2025-04-11 13:00:00+00:00,1941.0381007337644
2025-04-11 14:00:00+00:00,1913.1514875309085
2025-04-11 15:00:00+00:00,1844.0728531016837
2025-04-11 16:00:00+00:00,1815.1041259675535
2025-04-11 17:00:00+00:00,1762.7930139438138
2025-04-11 18:00:00+00:00,1741.010528711929
2025-04-11 19:00:00+00:00,1738.8095184730341
2025-04-14 13:00:00+00:00,1649.14738970626
2025-04-14 14:00:00+00:00,1693.0786346904465
2025-04-14 15:00:00+00:00,1711.7066188394117
2025-04-14 16:00:00+00:00,1716.2711657559948
2025-04-14 17:00:00+00:00,1700.1679992310958
2025-04-14 18:00:00+00:00,1679.2259850048229
2025-04-14 19:00:00+00:00,1695.0248916395212
2025-04-15 13:00:00+00:00,1802.0707982971803
2025-04-15 14:00:00+00:00,1787.4285570922798
2025-04-15 15:00:00+00:00,1792.6523561359666
2025-04-15 16:00:00+00:00,1812.7919978412867
2025-04-15 17:00:00+00:00,1825.6876346103302
2025-04-15 18:00:00+00:00,1811.006039500139
2025-04-15 19:00:00+00:00,1821.507601300621
2025-04-16 13:00:00+00:00,1877.7849761184018
2025-04-16 14:00:00+00:00,1778.428294115256
2025-04-16 15:00:00+00:00,1842.3881800821387
2025-04-16 17:00:00+00:00,1897.5708513331429
2025-04-16 18:00:00+00:00,1950.0633855614415
2025-04-16 19:00:00+00:00,1899.1761168830176
2025-04-17 13:00:00+00:00,1817.46389188613
2025-04-17 14:00:00+00:00,1793.0668288482502
2025-04-17 15:00:00+00:00,1791.3675704469586
2025-04-17 16:00:00+00:00,1794.8259467828682
2025-04-17 17:00:00+00:00,1752.8840191249503
2025-04-17 18:00:00+00:00,1788.5988142964998
2025-04-17 19:00:00+00:00,1796.584544209517
2025-04-21 13:00:00+00:00,1845.6110293503198
2025-04-21 14:00:00+00:00,1877.5106166561195
2025-04-21 15:00:00+00:00,1881.8052313281578
2025-04-21 16:00:00+00:00,1886.5108392367506
2025-04-21 17:00:00+00:00,1857.8995671949315
2025-04-21 18:00:00+00:00,1872.4474366008114
2025-04-21 19:00:00+00:00,1846.5147412938668
2025-04-22 13:00:00+00:00,1759.7692366695917
2025-04-22 14:00:00+00:00,1721.830556239876
2025-04-22 15:00:00+00:00,1667.4314979153967
2025-04-22 16:00:00+00:00,1741.013973039501
2025-04-22 17:00:00+00:00,1719.635992224163
2025-04-22 18:00:00+00:00,1708.2256344354275
2025-04-22 19:00:00+00:00,1699.054978722538
2025-04-23 13:00:00+00:00,1509.8378555317965
2025-04-23 14:00:00+00:00,1580.2111405375388
2025-04-23 15:00:00+00:00,1691.17555492184
2025-04-23 16:00:00+00:00,1667.932670567536
2025-04-23 17:00:00+00:00,1677.070065531216
2025-04-23 18:00:00+00:00,1712.2518153603933
2025-04-23 19:00:00+00:00,1699.6501442260949
2025-04-24 13:00:00+00:00,1636.1903755078945
2025-04-24 14:00:00+00:00,1618.3750581353404
2025-04-24 16:00:00+00:00,1584.6202003701142
2025-04-24 17:00:00+00:00,1584.9851664820212
2025-04-24 18:00:00+00:00,1571.8412226463377
2025-04-24 19:00:00+00:00,1566.1157833200803
2025-04-25 13:00:00+00:00,1694.543441411396
2025-04-25 14:00:00+00:00,1705.4928212313666
2025-04-25 15:00:00+00:00,1698.8772684283563
2025-04-25 16:00:00+00:00,1687.3600840193326
2025-04-25 17:00:00+00:00,1696.9049590836396
2025-04-25 18:00:00+00:00,1688.4303697793848
2025-04-25 19:00:00+00:00,1677.7078618267653
2025-04-28 13:00:00+00:00,1645.0725289190568
2025-04-28 14:00:00+00:00,1644.952533557698
2025-04-28 15:00:00+00:00,1671.296650347329
2025-04-28 16:00:00+00:00,1720.2773949295733
2025-04-28 17:00:00+00:00,1671.8311683066725
2025-04-28 18:00:00+00:00,1665.2744901309989
2025-04-28 19:00:00+00:00,1656.5714156744764
2025-04-29 13:00:00+00:00,1649.5452968689503
2025-04-29 14:00:00+00:00,1594.9116119350822
2025-04-29 15:00:00+00:00,1596.875397373679
2025-04-29 16:00:00+00:00,1598.9357738546032
2025-04-29 17:00:00+00:00,1594.189493130803
2025-04-29 19:00:00+00:00,1607.5569226320408
2025-04-30 13:00:00+00:00,1320.214137973365
2025-04-30 14:00:00+00:00,1337.4004827046806
2025-04-30 15:00:00+00:00,1343.621168967867
2025-04-30 16:00:00+00:00,1289.5597158407911
2025-04-30 17:00:00+00:00,1290.7030210834507
2025-04-30 18:00:00+00:00,1316.9174094167768
2025-05-01 13:00:00+00:00,1160.7974544476833
2025-05-01 14:00:00+00:00,1149.9556892588869
2025-05-01 15:00:00+00:00,1184.6688590361478
2025-05-01 16:00:00+00:00,1164.8355643273667
2025-05-01 17:00:00+00:00,1184.0651602030698
2025-05-01 18:00:00+00:00,1163.2033996934701
2025-05-01 19:00:00+00:00,1213.5625966357343
2025-05-02 13:00:00+00:00,1103.2872819289128
2025-05-02 14:00:00+00:00,1113.267603074314
2025-05-02 15:00:00+00:00,1052.6048731834153
2025-05-02 16:00:00+00:00,1045.0637088395492
2025-05-02 17:00:00+00:00,1035.6857874317716
2025-05-02 18:00:00+00:00,1059.564611158469
2025-05-02 19:00:00+00:00,1082.7207955729143
2025-05-05 13:00:00+00:00,1028.2999177429622
2025-05-05 14:00:00+00:00,1032.0894530530943
2025-05-05 15:00:00+00:00,1043.1190865897374
2025-05-05 16:00:00+00:00,1060.1227605079043
2025-05-05 17:00:00+00:00,1042.1505484231411
2025-05-05 18:00:00+00:00,1058.8032626463726
2025-05-05 19:00:00+00:00,1073.2801494897024
2025-05-06 13:00:00+00:00,1083.6080919593178
2025-05-06 14:00:00+00:00,1128.072707157655
2025-05-06 15:00:00+00:00,1145.934991617172
2025-05-06 16:00:00+00:00,1191.3549017834616
2025-05-06 17:00:00+00:00,1183.916791101577
2025-05-06 18:00:00+00:00,1175.5764480096025
2025-05-06 19:00:00+00:00,1182.9939115030857
2025-05-07 13:00:00+00:00,1251.2055604798882
2025-05-07 15:00:00+00:00,1263.3992051250864
2025-05-07 17:00:00+00:00,1336.5018067048943
2025-05-07 18:00:00+00:00,1334.7188908015544
2025-05-07 19:00:00+00:00,1297.163316129824
2025-05-08 13:00:00+00:00,1214.2632996392424
2025-05-08 14:00:00+00:00,1182.3444860010059
2025-05-08 15:00:00+00:00,1152.9936090415267
2025-05-08 16:00:00+00:00,1137.028074930704
2025-05-08 17:00:00+00:00,1181.0994331648922
2025-05-08 18:00:00+00:00,1150.8329108409873
2025-05-08 19:00:00+00:00,1196.5501141663246
2025-05-09 13:00:00+00:00,1142.1049354432607
2025-05-09 14:00:00+00:00,1125.7176357085962
2025-05-09 15:00:00+00:00,1133.823872699151
2025-05-09 16:00:00+00:00,1129.7502041792513
2025-05-09 17:00:00+00:00,1134.2990516331404
2025-05-09 18:00:00+00:00,1158.7168525080085
2025-05-09 19:00:00+00:00,1140.4923769818251
2025-05-12 13:00:00+00:00,848.9435385279953
2025-05-12 14:00:00+00:00,838.955547533624
2025-05-12 15:00:00+00:00,870.7773669765471
2025-05-12 16:00:00+00:00,829.1136468131853
2025-05-12 17:00:00+00:00,834.2875601985457
2025-05-12 18:00:00+00:00,842.2101030539319
2025-05-12 19:00:00+00:00,836.5316308146374
2025-05-13 13:00:00+00:00,864.5370158634053
2025-05-13 14:00:00+00:00,830.7958972329236
2025-05-13 15:00:00+00:00,826.9033833347758
2025-05-13 17:00:00+00:00,848.6581816924405
2025-05-13 18:00:00+00:00,843.3590759322917
2025-05-13 19:00:00+00:00,895.4051499140497
2025-05-14 13:00:00+00:00,961.343615857729
2025-05-14 14:00:00+00:00,976.9285430714426
2025-05-14 15:00:00+00:00,974.2191259463392
2025-05-14 16:00:00+00:00,1001.9506720407979
2025-05-14 17:00:00+00:00,1014.1105095483116
2025-05-14 18:00:00+00:00,1007.4680576612811
2025-05-14 19:00:00+00:00,994.3515334175917
2025-05-15 13:00:00+00:00,1018.6336889127383
2025-05-15 14:00:00+00:00,982.9356928973202
2025-05-15 15:00:00+00:00,973.1125516609641
2025-05-15 16:00:00+00:00,978.0582846601195
2025-05-15 17:00:00+00:00,967.7976783372255
2025-05-15 18:00:00+00:00,946.5758568299967
2025-05-15 19:00:00+00:00,926.8061085472825
2025-05-16 13:00:00+00:00,963.3920628322174
2025-05-16 14:00:00+00:00,958.0011686819765
2025-05-16 15:00:00+00:00,935.9343148188473
2025-05-16 16:00:00+00:00,920.0957162044798
2025-05-16 17:00:00+00:00,902.2035313170453
2025-05-16 18:00:00+00:00,879.7741604275275
2025-05-16 19:00:00+00:00,873.0880689778389
2025-05-19 13:00:00+00:00,912.2445000066588
2025-05-19 14:00:00+00:00,874.6066844735591
2025-05-19 15:00:00+00:00,859.0961527305918
2025-05-19 16:00:00+00:00,841.9729950569043
2025-05-19 17:00:00+00:00,857.557922270619
2025-05-19 18:00:00+00:00,877.790710138977
2025-05-19 19:00:00+00:00,859.8951390497486
2025-05-20 13:00:00+00:00,863.3503462798074
2025-05-20 14:00:00+00:00,855.8911038106597
2025-05-20 15:00:00+00:00,875.9440455761247
2025-05-20 16:00:00+00:00,885.1505861096357
2025-05-20 17:00:00+00:00,919.275622765055
2025-05-20 18:00:00+00:00,931.5762277819989
2025-05-20 19:00:00+00:00,901.1793659555777
2025-05-21 13:00:00+00:00,992.4057775779695
2025-05-21 14:00:00+00:00,988.5845990188357
2025-05-21 15:00:00+00:00,974.6101343684264
2025-05-21 16:00:00+00:00,1048.7660818276302
2025-05-21 17:00:00+00:00,1048.3320029428853
2025-05-21 18:00:00+00:00,1069.3607757865057
2025-05-21 19:00:00+00:00,1055.7494664363667
2025-05-22 13:00:00+00:00,1080.1900520129523
2025-05-22 14:00:00+00:00,1090.6682980469989
2025-05-22 16:00:00+00:00,1051.9953729631811
2025-05-22 17:00:00+00:00,1037.2368516606173
2025-05-22 18:00:00+00:00,1009.2078449761873
2025-05-22 19:00:00+00:00,1038.2811437025177
2025-05-23 13:00:00+00:00,1165.8550440005458
2025-05-23 14:00:00+00:00,1144.0084576438285
2025-05-23 15:00:00+00:00,1142.556985801204
2025-05-23 16:00:00+00:00,1126.9823528429458
2025-05-23 17:00:00+00:00,1123.1394042226698
2025-05-23 18:00:00+00:00,1113.435382004874
2025-05-23 19:00:00+00:00,1117.086250801477
2025-05-27 13:00:00+00:00,1037.3364440468376
2025-05-27 14:00:00+00:00,1005.8329498092651
2025-05-27 15:00:00+00:00,993.338105295255
2025-05-27 16:00:00+00:00,989.8698965343677
2025-05-27 17:00:00+00:00,983.5521573983763
2025-05-27 18:00:00+00:00,989.6391766347448
2025-05-27 19:00:00+00:00,980.6967013080614
2025-05-28 13:00:00+00:00,1041.0328233291573
2025-05-28 14:00:00+00:00,1059.3932884099781
2025-05-28 15:00:00+00:00,1045.9730247840591
2025-05-28 16:00:00+00:00,1046.9429301470057
2025-05-28 17:00:00+00:00,1061.186539662685
2025-05-28 18:00:00+00:00,1081.0322744107532
2025-05-28 19:00:00+00:00,1105.4587173685804
2025-05-29 13:00:00+00:00,1111.3983304433882
2025-05-29 14:00:00+00:00,1091.2586887380662
2025-05-29 15:00:00+00:00,1093.989799141971
2025-05-29 16:00:00+00:00,1076.6411273738822
2025-05-29 17:00:00+00:00,1082.3195996131767
2025-05-29 18:00:00+00:00,1060.5379608489852
2025-05-29 19:00:00+00:00,1050.6191926136648
2025-05-30 13:00:00+00:00,1127.9753087059255
2025-05-30 14:00:00+00:00,1136.4157646920908
2025-05-30 15:00:00+00:00,1166.3707928917283
2025-05-30 16:00:00+00:00,1157.7004135879276
2025-05-30 17:00:00+00:00,1143.6427616468145
2025-05-30 18:00:00+00:00,1114.7404907177067
2025-05-30 19:00:00+00:00,1108.955191858123
2025-06-02 13:00:00+00:00,1163.0133174608964
2025-06-02 14:00:00+00:00,1162.4249243609283
2025-06-02 15:00:00+00:00,1184.4053049138893
2025-06-02 16:00:00+00:00,1165.084540897025
2025-06-02 17:00:00+00:00,1137.6779428647421
2025-06-02 18:00:00+00:00,1134.3067282991656
2025-06-02 19:00:00+00:00,1124.7280460971758
2025-06-03 13:00:00+00:00,1145.5031066669173
2025-06-03 14:00:00+00:00,1116.3237101324232
2025-06-03 15:00:00+00:00,1072.9973635260496
2025-06-03 16:00:00+00:00,1064.5997004141664
2025-06-03 17:00:00+00:00,1068.7972622133987
2025-06-03 18:00:00+00:00,1076.0608733221366
2025-06-03 19:00:00+00:00,1059.379607952727
2025-06-04 13:00:00+00:00,1066.5548844223474
2025-06-04 14:00:00+00:00,1036.3477011237978
2025-06-04 15:00:00+00:00,1037.3054605464247
2025-06-04 16:00:00+00:00,1013.2769762312447
2025-06-04 17:00:00+00:00,1031.9532265626244
2025-06-04 18:00:00+00:00,1031.892579018412
2025-06-04 19:00:00+00:00,1052.7073137635555
2025-06-05 13:00:00+00:00,1073.0204140260812
2025-06-05 14:00:00+00:00,1060.238896788887
2025-06-05 15:00:00+00:00,1022.0532178113879
2025-06-05 16:00:00+00:00,1044.9283290374563
2025-06-05 17:00:00+00:00,1065.4563910594154
2025-06-05 18:00:00+00:00,1095.9732394554053
2025-06-05 19:00:00+00:00,1091.8226447431348
2025-06-06 13:00:00+00:00,999.8028463363887
2025-06-06 14:00:00+00:00,1007.044370436742
2025-06-06 15:00:00+00:00,979.1071526338422
2025-06-06 16:00:00+00:00,1017.0297706089767
2025-06-06 17:00:00+00:00,1013.2838748615047
2025-06-06 18:00:00+00:00,1016.2735184866096
2025-06-06 19:00:00+00:00,1013.8521412810406
2025-06-09 13:00:00+00:00,974.5606760290525
2025-06-09 14:00:00+00:00,986.1845286399157
2025-06-09 15:00:00+00:00,973.06794560839
2025-06-09 16:00:00+00:00,929.6022643394991
2025-06-09 17:00:00+00:00,939.1737123074221
2025-06-09 18:00:00+00:00,949.9628521969578
2025-06-09 19:00:00+00:00,976.2325735158425
2025-06-10 13:00:00+00:00,904.4425029560678
2025-06-10 14:00:00+00:00,858.1259813288414
2025-06-10 15:00:00+00:00,895.7013676090615
2025-06-10 16:00:00+00:00,860.2310314718785
2025-06-10 17:00:00+00:00,893.9892167614054
2025-06-10 18:00:00+00:00,877.307951391995
2025-06-10 19:00:00+00:00,869.0537877319082
2025-06-11 13:00:00+00:00,888.4705226220651
2025-06-11 14:00:00+00:00,909.008417069001
2025-06-11 15:00:00+00:00,926.4959616691293
2025-06-11 16:00:00+00:00,905.5871753950746
2025-06-11 18:00:00+00:00,999.4088846107215
2025-06-11 19:00:00+00:00,1004.6460437312045
2025-06-12 13:00:00+00:00,1038.946501722114
2025-06-12 14:00:00+00:00,1067.8727732444315
2025-06-12 15:00:00+00:00,1062.3569189184109
2025-06-12 17:00:00+00:00,1061.1327807736154
2025-06-12 18:00:00+00:00,1067.647432671546
2025-06-12 19:00:00+00:00,1061.4203001851777
2025-06-13 13:00:00+00:00,1312.9880458327941
2025-06-13 14:00:00+00:00,1255.5792172027768
2025-06-13 15:00:00+00:00,1260.6762043957676
2025-06-13 16:00:00+00:00,1352.4213758373148
2025-06-13 17:00:00+00:00,1408.2757540366933
2025-06-13 18:00:00+00:00,1433.5124416124945
2025-06-13 19:00:00+00:00,1426.1948380081478
2025-06-16 13:00:00+00:00,1269.7934467985117
2025-06-16 14:00:00+00:00,1326.1712020133991
2025-06-16 15:00:00+00:00,1310.9681151416862
2025-06-16 16:00:00+00:00,1283.527802739607
2025-06-16 17:00:00+00:00,1289.5242153263525
2025-06-16 18:00:00+00:00,1284.7583871075853
2025-06-16 19:00:00+00:00,1257.9399468641354
2025-06-17 13:00:00+00:00,1290.2060807697665
2025-06-17 14:00:00+00:00,1296.6485598734687
2025-06-17 15:00:00+00:00,1260.3386578758546
2025-06-17 16:00:00+00:00,1309.890394147513
2025-06-17 17:00:00+00:00,1356.7897980028426
2025-06-17 18:00:00+00:00,1350.87083211644
2025-06-17 19:00:00+00:00,1346.2784037773858
2025-06-18 13:00:00+00:00,1303.6949977883767
2025-06-18 15:00:00+00:00,1320.0743696505249
2025-06-18 17:00:00+00:00,1308.9289044585212
2025-06-18 18:00:00+00:00,1331.4737033987462
2025-06-18 19:00:00+00:00,1295.2915427127393
2025-06-20 13:00:00+00:00,1246.103070605127
2025-06-20 14:00:00+00:00,1260.0258740795343
2025-06-20 15:00:00+00:00,1264.3602216044658
2025-06-20 16:00:00+00:00,1283.1120312628987
2025-06-20 18:00:00+00:00,1280.0363169593427
2025-06-20 19:00:00+00:00,1258.7055884278034
2025-06-23 13:00:00+00:00,1221.107505526911
2025-06-23 14:00:00+00:00,1222.317066861064
2025-06-23 16:00:00+00:00,1161.9364579573187
2025-06-23 17:00:00+00:00,1080.8528707398173
2025-06-23 19:00:00+00:00,1037.3087375534126
2025-06-24 13:00:00+00:00,962.887484579764
2025-06-24 14:00:00+00:00,935.5977721120918
2025-06-25 13:00:00+00:00,953.204072287226
2025-06-25 14:00:00+00:00,961.9594672769468
2025-06-25 15:00:00+00:00,975.3199300470299
2025-06-25 16:00:00+00:00,997.7604418803813
2025-06-25 17:00:00+00:00,982.6335772765949
2025-06-25 19:00:00+00:00,960.1136494024718
2025-06-26 13:00:00+00:00,908.6187657578
2025-06-26 14:00:00+00:00,894.4951428116883
2025-06-26 19:00:00+00:00,944.8042539681085
2025-06-27 13:00:00+00:00,874.748095635688
2025-06-27 14:00:00+00:00,878.1830177668627
2025-06-27 15:00:00+00:00,856.5547108794397
2025-06-27 16:00:00+00:00,879.0961236178707
2025-06-27 17:00:00+00:00,940.6025773756426
2025-06-27 18:00:00+00:00,943.3605368675229
2025-06-27 19:00:00+00:00,913.3619277827202
2025-06-30 13:00:00+00:00,908.0939130131936
2025-06-30 14:00:00+00:00,920.2261138327731
2025-06-30 15:00:00+00:00,955.8732947289544
2025-06-30 16:00:00+00:00,936.348886530133
2025-06-30 17:00:00+00:00,939.6039625584118
2025-06-30 19:00:00+00:00,923.490443100566
2025-07-01 13:00:00+00:00,892.9996471002211
2025-07-01 14:00:00+00:00,758.8874548526086
2025-07-01 15:00:00+00:00,713.0762586758564
2025-07-01 16:00:00+00:00,758.651144099628
2025-07-01 17:00:00+00:00,770.4918597094617
2025-07-01 18:00:00+00:00,745.8307901422465
2025-07-01 19:00:00+00:00,758.3594417939391
2025-07-02 13:00:00+00:00,723.2005997810235
2025-07-02 14:00:00+00:00,618.6457034994041
2025-07-02 15:00:00+00:00,672.2885683790095
2025-07-02 16:00:00+00:00,660.556363533056
2025-07-02 17:00:00+00:00,641.718313254905
2025-07-02 18:00:00+00:00,652.2655270414629
2025-07-02 19:00:00+00:00,632.0985244216408
2025-07-03 13:00:00+00:00,654.205337767353
2025-07-03 14:00:00+00:00,657.7406402956352
2025-07-03 15:00:00+00:00,656.3151621711633
2025-07-07 13:00:00+00:00,737.1011800452566
2025-07-07 14:00:00+00:00,764.2345006147686
2025-07-07 15:00:00+00:00,796.6976059598333
2025-07-07 16:00:00+00:00,777.6620571522477
2025-07-07 17:00:00+00:00,820.2819435438136
2025-07-07 18:00:00+00:00,812.0146199344456
2025-07-07 19:00:00+00:00,828.6899595886435
2025-07-08 13:00:00+00:00,759.8830864307919
2025-07-08 14:00:00+00:00,710.2677198772581
2025-07-08 15:00:00+00:00,683.0231542813948
2025-07-08 16:00:00+00:00,717.2836529000663
2025-07-08 17:00:00+00:00,692.7626965828509
2025-07-08 18:00:00+00:00,661.1391570982184
2025-07-08 19:00:00+00:00,693.4724434487359
2025-07-09 13:00:00+00:00,652.1958937606491
2025-07-09 14:00:00+00:00,702.2670507833798
2025-07-09 15:00:00+00:00,712.3429989277442
2025-07-09 16:00:00+00:00,687.2792174300836
2025-07-09 17:00:00+00:00,675.4119377084236
2025-07-09 18:00:00+00:00,647.8615462357178
2025-07-09 19:00:00+00:00,647.2266478792667
2025-07-10 13:00:00+00:00,501.43064374650623
2025-07-10 14:00:00+00:00,490.65212429283116
2025-07-10 15:00:00+00:00,527.042859192583
2025-07-10 16:00:00+00:00,535.9691145485983
2025-07-10 17:00:00+00:00,531.3472476121055
2025-07-10 18:00:00+00:00,556.6843155850144
2025-07-10 19:00:00+00:00,571.6756945706474
2025-07-11 13:00:00+00:00,695.7290631885807
2025-07-11 14:00:00+00:00,714.3522745709749
2025-07-11 15:00:00+00:00,721.0317038547724
2025-07-11 16:00:00+00:00,697.7550123627867
2025-07-11 17:00:00+00:00,694.2322586272267
2025-07-11 18:00:00+00:00,684.9427480092986
2025-07-11 19:00:00+00:00,688.1900106180465
2025-07-14 13:00:00+00:00,808.4499878931886
2025-07-14 14:00:00+00:00,791.8236614487217
2025-07-14 15:00:00+00:00,804.4681754533486
2025-07-14 16:00:00+00:00,792.3120003319884
2025-07-14 17:00:00+00:00,775.8044200391289
2025-07-14 19:00:00+00:00,748.4551420267559
2025-07-15 13:00:00+00:00,820.0234784235064
2025-07-15 14:00:00+00:00,807.6563752211048
2025-07-15 15:00:00+00:00,842.5917315684642
2025-07-15 16:00:00+00:00,840.5549266472605
2025-07-15 17:00:00+00:00,862.0887201752935
2025-07-15 19:00:00+00:00,879.2191120830487
2025-07-16 13:00:00+00:00,872.1216666199554
2025-07-16 14:00:00+00:00,899.1806005105133
2025-07-16 15:00:00+00:00,881.7733683045517
2025-07-16 16:00:00+00:00,845.9178985018041
2025-07-16 17:00:00+00:00,822.8327554377432
2025-07-16 19:00:00+00:00,808.0233603384544
2025-07-17 13:00:00+00:00,832.5130081581757
2025-07-17 15:00:00+00:00,812.3375811829526
2025-07-17 16:00:00+00:00,795.3486697215484
2025-07-17 17:00:00+00:00,766.5134925598358
2025-07-18 13:00:00+00:00,880.5362625290844
2025-07-18 17:00:00+00:00,921.1224792051405
2025-07-18 19:00:00+00:00,873.8337587901201
2025-07-21 13:00:00+00:00,805.0068176293274
2025-07-21 14:00:00+00:00,834.0467410530624
2025-07-21 16:00:00+00:00,810.5226279699968
2025-07-21 19:00:00+00:00,871.6328072287174
2025-07-22 13:00:00+00:00,893.7178591947343
2025-07-22 14:00:00+00:00,909.2283997294919
2025-07-22 15:00:00+00:00,919.9065387860586
2025-07-22 18:00:00+00:00,870.1528016028088
2025-07-22 19:00:00+00:00,833.7257200519576
2025-07-23 13:00:00+00:00,787.4133512230644
2025-07-23 14:00:00+00:00,807.7837128280084
2025-07-23 15:00:00+00:00,735.0878293287885
2025-07-23 16:00:00+00:00,742.4053742556421
2025-07-23 17:00:00+00:00,758.9999396851956
2025-07-23 18:00:00+00:00,766.6917039634677
2025-07-23 19:00:00+00:00,758.2705279693572
2025-07-24 13:00:00+00:00,716.1873147443703
2025-07-24 14:00:00+00:00,765.2684397237222
2025-07-24 15:00:00+00:00,815.501203873235
2025-07-24 16:00:00+00:00,826.1899046881699
2025-07-24 19:00:00+00:00,842.7310568075798
2025-07-25 13:00:00+00:00,838.3771031101854
2025-07-25 14:00:00+00:00,829.634600566832
2025-07-25 15:00:00+00:00,817.7718386011502
2025-07-25 16:00:00+00:00,806.8454012697349
2025-07-25 17:00:00+00:00,797.1428257884107
2025-07-25 18:00:00+00:00,790.4841539307123
2025-07-28 13:00:00+00:00,847.6616427127602
2025-07-28 14:00:00+00:00,858.2044040028613
2025-07-28 15:00:00+00:00,831.5202099716928
2025-07-28 16:00:00+00:00,905.7961438901202
2025-07-28 17:00:00+00:00,905.6105802658233
2025-07-28 18:00:00+00:00,914.2048798449434
2025-07-28 19:00:00+00:00,921.5758967594339
2025-07-29 13:00:00+00:00,1016.655030749586
2025-07-29 14:00:00+00:00,1022.8992298949996
2025-07-29 15:00:00+00:00,1021.4614385096266
2025-07-29 16:00:00+00:00,1005.9872446259682
2025-07-29 17:00:00+00:00,1025.0702810284856
2025-07-29 18:00:00+00:00,1016.338398920992
2025-07-29 19:00:00+00:00,1025.2240747357368
2025-07-30 13:00:00+00:00,1319.1326525919872
2025-07-30 14:00:00+00:00,1416.2016830938733
2025-07-30 15:00:00+00:00,1392.4302064954381
2025-07-30 16:00:00+00:00,1311.7523824379825
2025-07-30 17:00:00+00:00,1338.262714758959
2025-07-30 18:00:00+00:00,1426.035386088599
2025-07-30 19:00:00+00:00,1424.6365395452353
2025-07-31 13:00:00+00:00,1370.9219642535961
2025-07-31 16:00:00+00:00,1419.164831891374
2025-07-31 17:00:00+00:00,1389.8984084452115
2025-07-31 18:00:00+00:00,1433.4871191019588
2025-07-31 19:00:00+00:00,1443.2221932021096
2025-08-01 13:00:00+00:00,1579.8757492248594
2025-08-01 14:00:00+00:00,1554.1815285595765
2025-08-01 15:00:00+00:00,1515.1993440988472
2025-08-01 16:00:00+00:00,1543.7939689359603
2025-08-01 17:00:00+00:00,1507.6644248677665
2025-08-04 13:00:00+00:00,1446.4677043083257
2025-08-04 14:00:00+00:00,1435.7666315549964
2025-08-04 15:00:00+00:00,1446.8830237089876
2025-08-04 17:00:00+00:00,1473.8585494890472
2025-08-04 18:00:00+00:00,1458.8856226299638
2025-08-04 19:00:00+00:00,1456.1169251569972
2025-08-05 13:00:00+00:00,1429.4334604592223
2025-08-05 14:00:00+00:00,1391.0671473679445
2025-08-05 16:00:00+00:00,1350.1887917439822
2025-08-05 17:00:00+00:00,1389.2875765724873
2025-08-05 19:00:00+00:00,1389.9694420158985
2025-08-06 13:00:00+00:00,1472.411078728626
2025-08-06 15:00:00+00:00,1418.9964618148535
2025-08-06 19:00:00+00:00,1389.3361783587104
2025-08-07 13:00:00+00:00,1308.772473833106
2025-08-07 14:00:00+00:00,1360.322001782481
2025-08-07 15:00:00+00:00,1320.5737914518963
2025-08-07 16:00:00+00:00,1354.3286492171223
2025-08-07 17:00:00+00:00,1329.811599609673
2025-08-07 18:00:00+00:00,1355.4451140532515
2025-08-07 19:00:00+00:00,1358.6624762340828
2025-08-08 13:00:00+00:00,1361.061707753775
2025-08-08 14:00:00+00:00,1325.0840289256298
2025-08-08 16:00:00+00:00,1290.098310608066
2025-08-08 17:00:00+00:00,1278.4670653446833
2025-08-08 18:00:00+00:00,1270.7512676762121
2025-08-08 19:00:00+00:00,1294.8342383989166
2025-08-11 13:00:00+00:00,1314.0783614202453
2025-08-11 14:00:00+00:00,1295.1700920937883
2025-08-11 15:00:00+00:00,1290.2333448312322
2025-08-11 18:00:00+00:00,1295.925497527779
2025-08-11 19:00:00+00:00,1312.125716925481
2025-08-12 13:00:00+00:00,1167.0856387346823
2025-08-12 14:00:00+00:00,1150.451239588841
2025-08-12 15:00:00+00:00,1148.0730236238585
2025-08-12 16:00:00+00:00,1185.5763753274666
2025-08-12 17:00:00+00:00,1151.1371126054107
2025-08-12 18:00:00+00:00,1168.3245884000894
2025-08-13 13:00:00+00:00,1073.0127976317985
2025-08-13 14:00:00+00:00,1012.7398119303327
2025-08-13 15:00:00+00:00,1030.1068494529195
2025-08-13 16:00:00+00:00,1046.8048553009683
2025-08-13 18:00:00+00:00,982.1447288231152
2025-08-13 19:00:00+00:00,935.9126137108964
2025-08-14 13:00:00+00:00,1050.6713168034732
2025-08-14 14:00:00+00:00,1033.999825181548
2025-08-14 15:00:00+00:00,1057.1501335458001
2025-08-14 16:00:00+00:00,1042.7982805484655
2025-08-14 18:00:00+00:00,992.0034701945806
2025-08-15 13:00:00+00:00,977.3357815496578
2025-08-15 14:00:00+00:00,1011.6471946175975
2025-08-15 16:00:00+00:00,1007.5475233670707
2025-08-15 17:00:00+00:00,997.9095021397238
2025-08-15 18:00:00+00:00,989.8566197818203
2025-08-18 13:00:00+00:00,1040.4418419030553
2025-08-18 14:00:00+00:00,1042.461118334735
2025-08-18 15:00:00+00:00,1023.16494919961
2025-08-18 16:00:00+00:00,1023.0508296677617
2025-08-18 18:00:00+00:00,1037.2846654359575
2025-08-18 19:00:00+00:00,1054.106564563339
2025-08-19 13:00:00+00:00,884.8962952020087
2025-08-19 14:00:00+00:00,900.4538028237274
2025-08-19 15:00:00+00:00,937.2179103865207
2025-08-19 17:00:00+00:00,954.413769773717
2025-08-19 18:00:00+00:00,938.7463084215157
2025-08-19 19:00:00+00:00,935.6900328594954
2025-08-20 13:00:00+00:00,990.1223778136864
2025-08-20 15:00:00+00:00,975.0464366716435
2025-08-20 16:00:00+00:00,977.0259802504298
2025-08-20 17:00:00+00:00,980.3266561693223
2025-08-21 13:00:00+00:00,1028.6084686491113
2025-08-21 14:00:00+00:00,1032.6102901138167
2025-08-21 18:00:00+00:00,1028.7106005487497
2025-08-21 19:00:00+00:00,1035.7636184382977
2025-08-22 13:00:00+00:00,836.155640562167
2025-08-22 14:00:00+00:00,814.5782074714748
2025-08-22 15:00:00+00:00,819.5311747046969
2025-08-22 16:00:00+00:00,843.7842177828101
2025-08-22 18:00:00+00:00,876.1102112217694
2025-08-22 19:00:00+00:00,872.8526543575641
2025-08-25 13:00:00+00:00,963.3711481408991
2025-08-25 14:00:00+00:00,974.170917147745
2025-08-25 15:00:00+00:00,986.2060060061023
2025-08-25 17:00:00+00:00,1008.9507777296524
2025-08-26 13:00:00+00:00,975.0703338600531
2025-08-26 14:00:00+00:00,964.4956938994741
2025-08-26 18:00:00+00:00,977.3045720511691
2025-08-26 19:00:00+00:00,968.2617163273792
2025-08-27 13:00:00+00:00,992.3408390178099
2025-08-27 14:00:00+00:00,983.4151041697647
2025-08-27 15:00:00+00:00,984.8425426221899
2025-08-27 16:00:00+00:00,989.3371300775561
2025-08-27 17:00:00+00:00,1015.6166838214175
2025-08-27 18:00:00+00:00,992.4305989790538
2025-08-27 19:00:00+00:00,1002.3463658704758
2025-08-28 14:00:00+00:00,1061.4552995901638
2025-08-28 18:00:00+00:00,1044.3920014498037
2025-08-28 19:00:00+00:00,1058.1909703223687
2025-08-29 15:00:00+00:00,1062.4948382339192
2025-08-29 16:00:00+00:00,1053.0575778007872
2025-08-29 19:00:00+00:00,1053.2212039330147
2025-09-02 13:00:00+00:00,1173.5383340178273
2025-09-02 14:00:00+00:00,1189.5248414974594
2025-09-02 15:00:00+00:00,1195.1226073923183
2025-09-02 18:00:00+00:00,1157.2240537657685
2025-09-02 19:00:00+00:00,1153.5922188726524
2025-09-03 13:00:00+00:00,1187.8555422015777
2025-09-03 15:00:00+00:00,1183.8608964037926
2025-09-03 16:00:00+00:00,1169.105676820879
2025-09-03 17:00:00+00:00,1163.5968409111658
2025-09-04 13:00:00+00:00,1160.3052190504513
2025-09-04 14:00:00+00:00,1127.7911134613037
2025-09-04 18:00:00+00:00,1142.9065199533268
2025-09-05 13:00:00+00:00,1083.9983471381956
2025-09-05 14:00:00+00:00,1105.7779667866023
2025-09-05 15:00:00+00:00,1125.3420491608285
2025-09-05 16:00:00+00:00,1147.461234444933
2025-09-05 17:00:00+00:00,1154.1596391555258
2025-09-05 18:00:00+00:00,1130.8261481516006
2025-09-08 13:00:00+00:00,1170.5879802619427
2025-09-08 14:00:00+00:00,1112.1485987247665
2025-09-08 15:00:00+00:00,1110.5335007499143
2025-09-08 18:00:00+00:00,1073.0827743455689
2025-09-08 19:00:00+00:00,1013.3059818201252
2025-09-09 13:00:00+00:00,1138.8877903583711
2025-09-09 14:00:00+00:00,1159.8411714162094
2025-09-09 15:00:00+00:00,1175.4999061234137
2025-09-09 17:00:00+00:00,1149.4510722791752
2025-09-09 18:00:00+00:00,1173.9088415387605
2025-09-09 19:00:00+00:00,1144.2114323227688
2025-09-10 13:00:00+00:00,1161.240017959574
2025-09-10 14:00:00+00:00,1192.7572513318892
2025-09-10 15:00:00+00:00,1184.5774156732643
2025-09-10 17:00:00+00:00,1192.478985159841
2025-09-11 13:00:00+00:00,1039.111364066871
2025-09-11 14:00:00+00:00,1016.089206438719
2025-09-11 18:00:00+00:00,997.3736756615215
2025-09-11 19:00:00+00:00,1000.3359583721274
2025-09-12 13:00:00+00:00,1066.5010286802428
2025-09-12 14:00:00+00:00,1082.8178484457183
2025-09-12 15:00:00+00:00,1069.2124648107888
2025-09-12 16:00:00+00:00,1050.7827106240704
2025-09-12 17:00:00+00:00,1056.6729756272935
2025-09-12 18:00:00+00:00,1059.3534974313054
2025-09-12 19:00:00+00:00,1077.0077281850495
2025-09-15 13:00:00+00:00,1050.3047159923049
2025-09-15 14:00:00+00:00,1143.4068459170903
2025-09-15 17:00:00+00:00,1115.8727330925428
2025-09-15 18:00:00+00:00,1134.8984494751498
2025-09-15 19:00:00+00:00,1150.1556039164368
2025-09-16 13:00:00+00:00,1195.1610413704434
2025-09-16 18:00:00+00:00,1225.524616567154
2025-09-17 13:00:00+00:00,1129.8621685038663
2025-09-17 16:00:00+00:00,1145.0650629466286
2025-09-17 17:00:00+00:00,1073.2959070781747
2025-09-17 18:00:00+00:00,1247.328862847704
2025-09-17 19:00:00+00:00,1237.4028017008236
2025-09-18 13:00:00+00:00,1164.2962935215935
2025-09-18 14:00:00+00:00,1222.6750275145564
2025-09-18 16:00:00+00:00,1187.5324641498
2025-09-18 18:00:00+00:00,1177.4526092956685
2025-09-19 13:00:00+00:00,1188.7800564993313
2025-09-19 15:00:00+00:00,1196.2125676464113
2025-09-19 17:00:00+00:00,1175.320848031404
2025-09-19 19:00:00+00:00,1130.4372848512842
2025-09-22 13:00:00+00:00,1187.1137004215677
2025-09-22 14:00:00+00:00,1172.7268589570067
2025-09-22 15:00:00+00:00,1145.1731399599983
2025-09-22 18:00:00+00:00,1105.2523764380794
2025-09-22 19:00:00+00:00,1116.9409417213737
2025-09-23 13:00:00+00:00,1198.3578925646598
2025-09-23 14:00:00+00:00,1216.808570124143
2025-09-23 15:00:00+00:00,1294.8219251380133
2025-09-23 19:00:00+00:00,1325.5840205792526
2025-09-24 15:00:00+00:00,1356.1240556770633
2025-09-24 17:00:00+00:00,1389.2518603661183
2025-09-24 18:00:00+00:00,1358.853866985513
2025-09-24 19:00:00+00:00,1370.5992317807438
2025-09-25 13:00:00+00:00,1388.1975097109264
2025-09-25 15:00:00+00:00,1394.0272361440561
2025-09-25 17:00:00+00:00,1454.6710141219212
2025-09-25 18:00:00+00:00,1449.4470736282099
2025-09-26 13:00:00+00:00,1470.3451807889078
2025-09-26 14:00:00+00:00,1483.9799443437817
2025-09-26 17:00:00+00:00,1434.362472378258
2025-09-26 18:00:00+00:00,1450.6566846273768
2025-09-26 19:00:00+00:00,1487.8925849223633
2025-09-29 13:00:00+00:00,1498.3740787199026
2025-09-29 14:00:00+00:00,1434.273232924985
2025-09-29 16:00:00+00:00,1463.45911655589
2025-09-29 17:00:00+00:00,1438.54042800503
2025-09-29 18:00:00+00:00,1447.34257986372
2025-09-29 19:00:00+00:00,1461.1783731082928
2025-09-30 13:00:00+00:00,1403.261925602951
2025-09-30 14:00:00+00:00,1440.6785186892098
2025-09-30 15:00:00+00:00,1414.7731842967669
2025-09-30 16:00:00+00:00,1431.7626162661422
2025-09-30 18:00:00+00:00,1392.2873984221792
2025-09-30 19:00:00+00:00,1386.5362326599973
2025-10-01 13:00:00+00:00,1431.8565504400663
2025-10-01 14:00:00+00:00,1401.5472352418783
2025-10-01 16:00:00+00:00,1435.9109389679109
2025-10-01 19:00:00+00:00,1426.8557113057266
2025-10-02 13:00:00+00:00,1389.6752704436576
2025-10-02 14:00:00+00:00,1398.014087920829
2025-10-02 15:00:00+00:00,1384.5703114126848
2025-10-02 16:00:00+00:00,1399.0712430703509
2025-10-02 17:00:00+00:00,1376.5003917344832
2025-10-02 18:00:00+00:00,1386.5003190523455
2025-10-02 19:00:00+00:00,1393.520050312182
2025-10-03 13:00:00+00:00,1368.3834814305244
2025-10-03 14:00:00+00:00,1398.5152899117172
2025-10-03 15:00:00+00:00,1375.8629355390804
2025-10-03 16:00:00+00:00,1344.214101809673
2025-10-03 17:00:00+00:00,1383.622502316322
2025-10-03 19:00:00+00:00,1412.4607889187187
2025-10-06 13:00:00+00:00,1413.853247916394
2025-10-06 14:00:00+00:00,1409.5126099543832
2025-10-06 15:00:00+00:00,1423.792989520523
2025-10-06 16:00:00+00:00,1395.580368115613
2025-10-06 17:00:00+00:00,1409.1583908360408
2025-10-06 18:00:00+00:00,1436.3412473446785
2025-10-06 19:00:00+00:00,1459.654640896572
2025-10-07 13:00:00+00:00,1537.0686474024171
2025-10-07 14:00:00+00:00,1536.0414015829472
2025-10-07 15:00:00+00:00,1566.2075435097456
2025-10-07 16:00:00+00:00,1562.0667518837058
2025-10-07 17:00:00+00:00,1576.7586705880985
2025-10-07 18:00:00+00:00,1595.0153010794672
2025-10-07 19:00:00+00:00,1578.073386043772
2025-10-08 13:00:00+00:00,1597.8188696951224
2025-10-08 14:00:00+00:00,1583.010133306327
2025-10-08 15:00:00+00:00,1586.8628850128343
2025-10-08 18:00:00+00:00,1581.1984194111944
2025-10-08 19:00:00+00:00,1577.1448775717288
2025-10-09 13:00:00+00:00,1649.628859332902
2025-10-09 14:00:00+00:00,1656.6879446083733
2025-10-09 15:00:00+00:00,1671.5689122331123
2025-10-09 18:00:00+00:00,1698.0328135894918
2025-10-10 13:00:00+00:00,1581.9948955556815
2025-10-10 14:00:00+00:00,1645.9192227720068
2025-10-10 15:00:00+00:00,1706.3882336738093
2025-10-10 16:00:00+00:00,1720.391320203636
2025-10-10 18:00:00+00:00,1735.3942712018184
2025-10-13 13:00:00+00:00,1777.1972579268038
2025-10-13 14:00:00+00:00,1758.3214578804282
2025-10-13 15:00:00+00:00,1752.9168245954447
2025-10-13 16:00:00+00:00,1741.3188659617736
2025-10-13 18:00:00+00:00,1742.4627210511505
2025-10-13 19:00:00+00:00,1750.7834873094073
2025-10-14 13:00:00+00:00,1736.7835945524248
2025-10-14 14:00:00+00:00,1706.5373326604106
2025-10-14 16:00:00+00:00,1620.5343703625042
2025-10-14 17:00:00+00:00,1609.9793365743863
2025-10-14 18:00:00+00:00,1616.3798982792148
2025-10-14 19:00:00+00:00,1651.7498540192912
2025-10-15 13:00:00+00:00,1624.2649509534644
2025-10-15 14:00:00+00:00,1722.6785973389406
2025-10-15 15:00:00+00:00,1715.6921527088155
2025-10-15 18:00:00+00:00,1702.15719937806
2025-10-15 19:00:00+00:00,1715.5802177229475
2025-10-16 13:00:00+00:00,1647.2272448278513
2025-10-16 14:00:00+00:00,1617.7454875316132
2025-10-16 15:00:00+00:00,1661.171653153896
2025-10-16 16:00:00+00:00,1646.734487739324
2025-10-16 17:00:00+00:00,1649.5574745495585
2025-10-16 18:00:00+00:00,1613.122242084976
2025-10-16 19:00:00+00:00,1610.715953185546
2025-10-17 13:00:00+00:00,1634.5643165973318
2025-10-17 14:00:00+00:00,1620.970604454485
2025-10-17 15:00:00+00:00,1616.476046337863
2025-10-17 17:00:00+00:00,1607.7278148489695
2025-10-17 18:00:00+00:00,1571.4881667121276
2025-10-20 13:00:00+00:00,1515.3722630400264
2025-10-20 14:00:00+00:00,1518.3537967349703
2025-10-20 17:00:00+00:00,1514.9527110802233
2025-10-20 18:00:00+00:00,1511.969484339555
2025-10-21 13:00:00+00:00,1462.6306431576063
2025-10-21 14:00:00+00:00,1361.9490486622844
2025-10-21 16:00:00+00:00,1361.9490486622844
2025-10-21 17:00:00+00:00,1361.9490486622844
2025-10-21 18:00:00+00:00,1361.9490486622844
2025-10-21 19:00:00+00:00,1361.9490486622844
2025-10-22 13:00:00+00:00,1361.9490486622844
2025-10-22 14:00:00+00:00,1361.9490486622844
2025-10-22 16:00:00+00:00,1361.9490486622844
2025-10-22 17:00:00+00:00,1361.9490486622844
2025-10-22 18:00:00+00:00,1361.9490486622844
2025-10-22 19:00:00+00:00,1361.9490486622844
