Date,0
2024-01-02 14:00:00+00:00,0.0
2024-01-02 15:00:00+00:00,0.0
2024-01-02 16:00:00+00:00,0.0
2024-01-02 17:00:00+00:00,0.0
2024-01-02 18:00:00+00:00,0.0
2024-01-02 19:00:00+00:00,0.0
2024-01-02 20:00:00+00:00,0.0
2024-01-03 14:00:00+00:00,0.0
2024-01-03 15:00:00+00:00,0.0
2024-01-03 16:00:00+00:00,0.0
2024-01-03 17:00:00+00:00,0.0
2024-01-03 18:00:00+00:00,0.0
2024-01-03 19:00:00+00:00,0.0
2024-01-03 20:00:00+00:00,0.0
2024-01-04 14:00:00+00:00,0.0
2024-01-04 15:00:00+00:00,0.0
2024-01-04 16:00:00+00:00,0.0
2024-01-04 17:00:00+00:00,0.0
2024-01-04 18:00:00+00:00,0.0
2024-01-04 19:00:00+00:00,0.0
2024-01-04 20:00:00+00:00,0.0
2024-01-05 14:00:00+00:00,0.0
2024-01-05 15:00:00+00:00,0.0
2024-01-05 16:00:00+00:00,0.0
2024-01-05 17:00:00+00:00,0.0
2024-01-05 18:00:00+00:00,0.0
2024-01-05 19:00:00+00:00,0.0
2024-01-05 20:00:00+00:00,0.0
2024-01-08 14:00:00+00:00,0.0
2024-01-08 15:00:00+00:00,0.0
2024-01-08 16:00:00+00:00,0.0
2024-01-08 17:00:00+00:00,0.0
2024-01-08 18:00:00+00:00,0.0
2024-01-08 19:00:00+00:00,0.0
2024-01-08 20:00:00+00:00,0.0
2024-01-09 14:00:00+00:00,0.0
2024-01-09 15:00:00+00:00,0.0
2024-01-09 16:00:00+00:00,0.0
2024-01-09 17:00:00+00:00,0.0
2024-01-09 18:00:00+00:00,0.0
2024-01-09 19:00:00+00:00,0.0
2024-01-09 20:00:00+00:00,0.0
2024-01-10 14:00:00+00:00,0.0
2024-01-10 15:00:00+00:00,0.0
2024-01-10 16:00:00+00:00,0.0
2024-01-10 17:00:00+00:00,0.0
2024-01-10 18:00:00+00:00,0.0
2024-01-10 19:00:00+00:00,0.0
2024-01-10 20:00:00+00:00,0.0
2024-01-11 14:00:00+00:00,0.0
2024-01-11 15:00:00+00:00,0.0
2024-01-11 16:00:00+00:00,0.0
2024-01-11 17:00:00+00:00,0.0
2024-01-11 18:00:00+00:00,0.0
2024-01-11 19:00:00+00:00,0.0
2024-01-11 20:00:00+00:00,0.0
2024-01-12 14:00:00+00:00,0.0
2024-01-12 15:00:00+00:00,0.0
2024-01-12 16:00:00+00:00,0.0
2024-01-12 17:00:00+00:00,0.0
2024-01-12 18:00:00+00:00,0.0
2024-01-12 19:00:00+00:00,0.0
2024-01-12 20:00:00+00:00,0.0
2024-01-16 14:00:00+00:00,0.0
2024-01-16 15:00:00+00:00,0.0
2024-01-16 16:00:00+00:00,0.0
2024-01-16 17:00:00+00:00,0.0
2024-01-16 18:00:00+00:00,0.0
2024-01-16 19:00:00+00:00,0.0
2024-01-16 20:00:00+00:00,0.0
2024-01-17 14:00:00+00:00,0.0
2024-01-17 15:00:00+00:00,0.0
2024-01-17 16:00:00+00:00,0.0
2024-01-17 17:00:00+00:00,0.0
2024-01-17 18:00:00+00:00,0.0
2024-01-17 19:00:00+00:00,0.0
2024-01-17 20:00:00+00:00,0.0
2024-01-18 14:00:00+00:00,0.0
2024-01-18 15:00:00+00:00,0.0
2024-01-18 16:00:00+00:00,0.0
2024-01-18 17:00:00+00:00,0.0
2024-01-18 18:00:00+00:00,0.0
2024-01-18 19:00:00+00:00,0.0
2024-01-18 20:00:00+00:00,0.0
2024-01-19 14:00:00+00:00,0.0
2024-01-19 15:00:00+00:00,0.0
2024-01-19 16:00:00+00:00,0.0
2024-01-19 17:00:00+00:00,0.0
2024-01-19 18:00:00+00:00,0.0
2024-01-19 19:00:00+00:00,0.0
2024-01-19 20:00:00+00:00,0.0
2024-01-22 14:00:00+00:00,0.0
2024-01-22 15:00:00+00:00,0.0
2024-01-22 16:00:00+00:00,0.0
2024-01-22 17:00:00+00:00,0.0
2024-01-22 18:00:00+00:00,0.0
2024-01-22 19:00:00+00:00,0.0
2024-01-22 20:00:00+00:00,0.0
2024-01-23 14:00:00+00:00,0.0
2024-01-23 15:00:00+00:00,0.0
2024-01-23 16:00:00+00:00,0.0
2024-01-23 17:00:00+00:00,0.0
2024-01-23 18:00:00+00:00,0.0
2024-01-23 19:00:00+00:00,0.0
2024-01-23 20:00:00+00:00,0.0
2024-01-24 14:00:00+00:00,0.0
2024-01-24 15:00:00+00:00,0.0
2024-01-24 16:00:00+00:00,0.0
2024-01-24 17:00:00+00:00,0.0
2024-01-24 18:00:00+00:00,0.0
2024-01-24 19:00:00+00:00,0.0
2024-01-24 20:00:00+00:00,0.0
2024-01-25 14:00:00+00:00,0.0
2024-01-25 15:00:00+00:00,0.0
2024-01-25 16:00:00+00:00,0.0
2024-01-25 17:00:00+00:00,0.0
2024-01-25 18:00:00+00:00,0.0
2024-01-25 19:00:00+00:00,0.0
2024-01-25 20:00:00+00:00,0.0
2024-01-26 14:00:00+00:00,0.0
2024-01-26 15:00:00+00:00,0.0
2024-01-26 16:00:00+00:00,0.0
2024-01-26 17:00:00+00:00,0.0
2024-01-26 18:00:00+00:00,0.0
2024-01-26 19:00:00+00:00,0.0
2024-01-26 20:00:00+00:00,0.0
2024-01-29 14:00:00+00:00,0.0
2024-01-29 15:00:00+00:00,0.0
2024-01-29 16:00:00+00:00,0.0
2024-01-29 17:00:00+00:00,0.0
2024-01-29 18:00:00+00:00,0.0
2024-01-29 19:00:00+00:00,0.0
2024-01-29 20:00:00+00:00,0.0
2024-01-30 14:00:00+00:00,0.0
2024-01-30 15:00:00+00:00,0.0
2024-01-30 16:00:00+00:00,0.0
2024-01-30 17:00:00+00:00,0.0
2024-01-30 18:00:00+00:00,0.0
2024-01-30 19:00:00+00:00,0.0
2024-01-30 20:00:00+00:00,0.0
2024-01-31 14:00:00+00:00,0.0
2024-01-31 15:00:00+00:00,0.0
2024-01-31 16:00:00+00:00,0.0
2024-01-31 17:00:00+00:00,0.0
2024-01-31 18:00:00+00:00,0.0
2024-01-31 19:00:00+00:00,0.0
2024-01-31 20:00:00+00:00,0.0
2024-02-01 14:00:00+00:00,0.0
2024-02-01 15:00:00+00:00,0.0
2024-02-01 16:00:00+00:00,0.0
2024-02-01 17:00:00+00:00,0.0
2024-02-01 18:00:00+00:00,0.0
2024-02-01 19:00:00+00:00,0.0
2024-02-01 20:00:00+00:00,0.0
2024-02-02 14:00:00+00:00,0.0
2024-02-02 15:00:00+00:00,0.0
2024-02-02 16:00:00+00:00,0.0
2024-02-02 17:00:00+00:00,0.0
2024-02-02 18:00:00+00:00,0.0
2024-02-02 19:00:00+00:00,0.0
2024-02-02 20:00:00+00:00,0.0
2024-02-05 14:00:00+00:00,0.0
2024-02-05 15:00:00+00:00,0.0
2024-02-05 16:00:00+00:00,0.0
2024-02-05 17:00:00+00:00,0.0
2024-02-05 18:00:00+00:00,0.0
2024-02-05 19:00:00+00:00,0.0
2024-02-05 20:00:00+00:00,0.0
2024-02-06 14:00:00+00:00,0.0
2024-02-06 15:00:00+00:00,0.0
2024-02-06 16:00:00+00:00,0.0
2024-02-06 17:00:00+00:00,0.0
2024-02-06 18:00:00+00:00,0.0
2024-02-06 19:00:00+00:00,0.0
2024-02-06 20:00:00+00:00,0.0
2024-02-07 14:00:00+00:00,0.0
2024-02-07 15:00:00+00:00,0.0
2024-02-07 16:00:00+00:00,0.0
2024-02-07 17:00:00+00:00,0.0
2024-02-07 18:00:00+00:00,0.0
2024-02-07 19:00:00+00:00,0.0
2024-02-07 20:00:00+00:00,0.0
2024-02-08 14:00:00+00:00,0.0
2024-02-08 15:00:00+00:00,0.0
2024-02-08 16:00:00+00:00,0.0
2024-02-08 17:00:00+00:00,0.0
2024-02-08 18:00:00+00:00,0.0
2024-02-08 19:00:00+00:00,0.0
2024-02-08 20:00:00+00:00,0.0
2024-02-09 14:00:00+00:00,0.0
2024-02-09 15:00:00+00:00,0.0
2024-02-09 16:00:00+00:00,0.0
2024-02-09 17:00:00+00:00,0.0
2024-02-09 18:00:00+00:00,0.0
2024-02-09 19:00:00+00:00,0.0
2024-02-09 20:00:00+00:00,0.0
2024-02-12 14:00:00+00:00,0.0
2024-02-12 15:00:00+00:00,0.0
2024-02-12 16:00:00+00:00,0.0
2024-02-12 17:00:00+00:00,0.0
2024-02-12 18:00:00+00:00,0.0
2024-02-12 19:00:00+00:00,0.0
2024-02-12 20:00:00+00:00,0.0
2024-02-13 14:00:00+00:00,0.0
2024-02-13 15:00:00+00:00,0.0
2024-02-13 16:00:00+00:00,0.0
2024-02-13 17:00:00+00:00,0.0
2024-02-13 18:00:00+00:00,0.0
2024-02-13 19:00:00+00:00,0.0
2024-02-13 20:00:00+00:00,0.0
2024-02-14 14:00:00+00:00,0.0
2024-02-14 15:00:00+00:00,0.0
2024-02-14 16:00:00+00:00,0.0
2024-02-14 17:00:00+00:00,0.0
2024-02-14 18:00:00+00:00,0.0
2024-02-14 19:00:00+00:00,0.0
2024-02-14 20:00:00+00:00,0.0
2024-02-15 14:00:00+00:00,0.0
2024-02-15 15:00:00+00:00,0.0
2024-02-15 16:00:00+00:00,0.0
2024-02-15 17:00:00+00:00,0.0
2024-02-15 18:00:00+00:00,0.0
2024-02-15 19:00:00+00:00,0.0
2024-02-15 20:00:00+00:00,0.0
2024-02-16 14:00:00+00:00,0.0
2024-02-16 15:00:00+00:00,0.0
2024-02-16 16:00:00+00:00,0.0
2024-02-16 17:00:00+00:00,0.0
2024-02-16 18:00:00+00:00,0.0
2024-02-16 19:00:00+00:00,0.0
2024-02-16 20:00:00+00:00,0.0
2024-02-20 14:00:00+00:00,0.0
2024-02-20 15:00:00+00:00,0.0
2024-02-20 16:00:00+00:00,0.0
2024-02-20 17:00:00+00:00,0.0
2024-02-20 18:00:00+00:00,0.0
2024-02-20 19:00:00+00:00,0.0
2024-02-20 20:00:00+00:00,0.0
2024-02-21 14:00:00+00:00,0.0
2024-02-21 15:00:00+00:00,0.0
2024-02-21 16:00:00+00:00,0.0
2024-02-21 17:00:00+00:00,0.0
2024-02-21 18:00:00+00:00,0.0
2024-02-21 19:00:00+00:00,0.0
2024-02-21 20:00:00+00:00,0.0
2024-02-22 14:00:00+00:00,0.0
2024-02-22 15:00:00+00:00,0.0
2024-02-22 16:00:00+00:00,0.0
2024-02-22 17:00:00+00:00,0.0
2024-02-22 18:00:00+00:00,0.0
2024-02-22 19:00:00+00:00,0.0
2024-02-22 20:00:00+00:00,0.0
2024-02-23 14:00:00+00:00,0.0
2024-02-23 15:00:00+00:00,0.0
2024-02-23 16:00:00+00:00,0.0
2024-02-23 17:00:00+00:00,0.0
2024-02-23 18:00:00+00:00,0.0
2024-02-23 19:00:00+00:00,0.0
2024-02-23 20:00:00+00:00,0.0
2024-02-26 14:00:00+00:00,0.0
2024-02-26 15:00:00+00:00,0.0
2024-02-26 16:00:00+00:00,0.0
2024-02-26 17:00:00+00:00,0.0
2024-02-26 18:00:00+00:00,0.0
2024-02-26 19:00:00+00:00,0.0
2024-02-26 20:00:00+00:00,0.0
2024-02-27 14:00:00+00:00,0.0
2024-02-27 15:00:00+00:00,0.0
2024-02-27 16:00:00+00:00,0.0
2024-02-27 17:00:00+00:00,0.0
2024-02-27 18:00:00+00:00,0.0
2024-02-27 19:00:00+00:00,0.0
2024-02-27 20:00:00+00:00,0.0
2024-02-28 14:00:00+00:00,0.0
2024-02-28 15:00:00+00:00,0.0
2024-02-28 16:00:00+00:00,0.0
2024-02-28 17:00:00+00:00,0.0
2024-02-28 18:00:00+00:00,0.0
2024-02-28 19:00:00+00:00,0.0
2024-02-28 20:00:00+00:00,0.0
2024-02-29 14:00:00+00:00,0.0
2024-02-29 15:00:00+00:00,0.0
2024-02-29 16:00:00+00:00,0.0
2024-02-29 17:00:00+00:00,0.0
2024-02-29 18:00:00+00:00,0.0
2024-02-29 19:00:00+00:00,0.0
2024-02-29 20:00:00+00:00,0.0
2024-03-01 14:00:00+00:00,0.0
2024-03-01 15:00:00+00:00,0.0
2024-03-01 16:00:00+00:00,0.0
2024-03-01 17:00:00+00:00,0.0
2024-03-01 18:00:00+00:00,0.0
2024-03-01 19:00:00+00:00,0.0
2024-03-01 20:00:00+00:00,0.0
2024-03-04 14:00:00+00:00,0.0
2024-03-04 15:00:00+00:00,0.0
2024-03-04 16:00:00+00:00,0.0
2024-03-04 17:00:00+00:00,0.0
2024-03-04 18:00:00+00:00,0.0
2024-03-04 19:00:00+00:00,0.0
2024-03-04 20:00:00+00:00,0.0
2024-03-05 14:00:00+00:00,0.0
2024-03-05 15:00:00+00:00,0.0
2024-03-05 16:00:00+00:00,0.0
2024-03-05 17:00:00+00:00,0.0
2024-03-05 18:00:00+00:00,0.0
2024-03-05 19:00:00+00:00,0.0
2024-03-05 20:00:00+00:00,0.0
2024-03-06 14:00:00+00:00,0.0
2024-03-06 15:00:00+00:00,0.0
2024-03-06 16:00:00+00:00,0.0
2024-03-06 17:00:00+00:00,0.0
2024-03-06 18:00:00+00:00,0.0
2024-03-06 19:00:00+00:00,0.0
2024-03-06 20:00:00+00:00,0.0
2024-03-07 14:00:00+00:00,0.0
2024-03-07 15:00:00+00:00,0.0
2024-03-07 16:00:00+00:00,0.0
2024-03-07 17:00:00+00:00,0.0
2024-03-07 18:00:00+00:00,0.0
2024-03-07 19:00:00+00:00,0.0
2024-03-07 20:00:00+00:00,0.0
2024-03-08 14:00:00+00:00,0.0
2024-03-08 15:00:00+00:00,0.0
2024-03-08 16:00:00+00:00,0.0
2024-03-08 17:00:00+00:00,0.0
2024-03-08 18:00:00+00:00,0.0
2024-03-08 19:00:00+00:00,0.0
2024-03-08 20:00:00+00:00,0.0
2024-03-11 13:00:00+00:00,0.0
2024-03-11 14:00:00+00:00,0.0
2024-03-11 15:00:00+00:00,0.0
2024-03-11 16:00:00+00:00,0.0
2024-03-11 17:00:00+00:00,0.0
2024-03-11 18:00:00+00:00,0.0
2024-03-11 19:00:00+00:00,0.0
2024-03-12 13:00:00+00:00,0.0
2024-03-12 14:00:00+00:00,0.0
2024-03-12 15:00:00+00:00,0.0
2024-03-12 16:00:00+00:00,0.0
2024-03-12 17:00:00+00:00,0.0
2024-03-12 18:00:00+00:00,0.0
2024-03-12 19:00:00+00:00,0.0
2024-03-13 13:00:00+00:00,0.0
2024-03-13 14:00:00+00:00,0.0
2024-03-13 15:00:00+00:00,0.0
2024-03-13 16:00:00+00:00,0.0
2024-03-13 17:00:00+00:00,0.0
2024-03-13 18:00:00+00:00,0.0
2024-03-13 19:00:00+00:00,0.0
2024-03-14 13:00:00+00:00,0.0
2024-03-14 14:00:00+00:00,0.0
2024-03-14 15:00:00+00:00,0.0
2024-03-14 16:00:00+00:00,0.0
2024-03-14 17:00:00+00:00,0.0
2024-03-14 18:00:00+00:00,0.0
2024-03-14 19:00:00+00:00,0.0
2024-03-15 13:00:00+00:00,0.0
2024-03-15 14:00:00+00:00,0.0
2024-03-15 15:00:00+00:00,0.0
2024-03-15 16:00:00+00:00,0.0
2024-03-15 17:00:00+00:00,0.0
2024-03-15 18:00:00+00:00,0.0
2024-03-15 19:00:00+00:00,0.0
2024-03-18 13:00:00+00:00,0.0
2024-03-18 14:00:00+00:00,0.0
2024-03-18 15:00:00+00:00,0.0
2024-03-18 16:00:00+00:00,0.0
2024-03-18 17:00:00+00:00,0.0
2024-03-18 18:00:00+00:00,0.0
2024-03-18 19:00:00+00:00,0.0
2024-03-19 13:00:00+00:00,0.0
2024-03-19 14:00:00+00:00,0.0
2024-03-19 15:00:00+00:00,0.0
2024-03-19 16:00:00+00:00,0.0
2024-03-19 17:00:00+00:00,0.0
2024-03-19 18:00:00+00:00,0.0
2024-03-19 19:00:00+00:00,0.0
2024-03-20 13:00:00+00:00,0.0
2024-03-20 14:00:00+00:00,0.0
2024-03-20 15:00:00+00:00,0.0
2024-03-20 16:00:00+00:00,0.0
2024-03-20 17:00:00+00:00,0.0
2024-03-20 18:00:00+00:00,0.0
2024-03-20 19:00:00+00:00,0.0
2024-03-21 13:00:00+00:00,0.0
2024-03-21 14:00:00+00:00,0.0
2024-03-21 15:00:00+00:00,0.0
2024-03-21 16:00:00+00:00,0.0
2024-03-21 17:00:00+00:00,0.0
2024-03-21 18:00:00+00:00,0.0
2024-03-21 19:00:00+00:00,0.0
2024-03-22 13:00:00+00:00,0.0
2024-03-22 14:00:00+00:00,0.0
2024-03-22 15:00:00+00:00,0.0
2024-03-22 16:00:00+00:00,0.0
2024-03-22 17:00:00+00:00,0.0
2024-03-22 18:00:00+00:00,0.0
2024-03-22 19:00:00+00:00,0.0
2024-03-25 13:00:00+00:00,0.0
2024-03-25 14:00:00+00:00,0.0
2024-03-25 15:00:00+00:00,0.0
2024-03-25 16:00:00+00:00,0.0
2024-03-25 17:00:00+00:00,0.0
2024-03-25 18:00:00+00:00,0.0
2024-03-25 19:00:00+00:00,0.0
2024-03-26 13:00:00+00:00,0.0
2024-03-26 14:00:00+00:00,0.0
2024-03-26 15:00:00+00:00,0.0
2024-03-26 16:00:00+00:00,0.0
2024-03-26 17:00:00+00:00,0.0
2024-03-26 18:00:00+00:00,0.0
2024-03-26 19:00:00+00:00,0.0
2024-03-27 13:00:00+00:00,0.0
2024-03-27 14:00:00+00:00,0.0
2024-03-27 15:00:00+00:00,0.0
2024-03-27 16:00:00+00:00,0.0
2024-03-27 17:00:00+00:00,0.0
2024-03-27 18:00:00+00:00,0.0
2024-03-27 19:00:00+00:00,0.0
2024-03-28 13:00:00+00:00,0.0
2024-03-28 14:00:00+00:00,0.0
2024-03-28 15:00:00+00:00,0.0
2024-03-28 16:00:00+00:00,0.0
2024-03-28 17:00:00+00:00,0.0
2024-03-28 18:00:00+00:00,0.0
2024-03-28 19:00:00+00:00,0.0
2024-04-01 13:00:00+00:00,0.0
2024-04-01 14:00:00+00:00,0.0
2024-04-01 15:00:00+00:00,0.0
2024-04-01 16:00:00+00:00,0.0
2024-04-01 17:00:00+00:00,0.0
2024-04-01 18:00:00+00:00,0.0
2024-04-01 19:00:00+00:00,0.0
2024-04-02 13:00:00+00:00,0.0
2024-04-02 14:00:00+00:00,0.0
2024-04-02 15:00:00+00:00,0.0
2024-04-02 16:00:00+00:00,0.0
2024-04-02 17:00:00+00:00,0.0
2024-04-02 18:00:00+00:00,0.0
2024-04-02 19:00:00+00:00,0.0
2024-04-03 13:00:00+00:00,0.0
2024-04-03 14:00:00+00:00,0.0
2024-04-03 15:00:00+00:00,0.0
2024-04-03 16:00:00+00:00,0.0
2024-04-03 17:00:00+00:00,0.0
2024-04-03 18:00:00+00:00,0.0
2024-04-03 19:00:00+00:00,0.0
2024-04-04 13:00:00+00:00,0.0
2024-04-04 14:00:00+00:00,0.0
2024-04-04 15:00:00+00:00,0.0
2024-04-04 16:00:00+00:00,0.0
2024-04-04 17:00:00+00:00,0.0
2024-04-04 18:00:00+00:00,0.0
2024-04-04 19:00:00+00:00,0.0
2024-04-05 13:00:00+00:00,0.0
2024-04-05 14:00:00+00:00,0.0
2024-04-05 15:00:00+00:00,0.0
2024-04-05 16:00:00+00:00,0.0
2024-04-05 17:00:00+00:00,0.0
2024-04-05 18:00:00+00:00,0.0
2024-04-05 19:00:00+00:00,0.0
2024-04-08 13:00:00+00:00,0.0
2024-04-08 14:00:00+00:00,0.0
2024-04-08 15:00:00+00:00,0.0
2024-04-08 16:00:00+00:00,0.0
2024-04-08 17:00:00+00:00,0.0
2024-04-08 18:00:00+00:00,0.0
2024-04-08 19:00:00+00:00,0.0
2024-04-09 13:00:00+00:00,0.0
2024-04-09 14:00:00+00:00,0.0
2024-04-09 15:00:00+00:00,0.0
2024-04-09 16:00:00+00:00,0.0
2024-04-09 17:00:00+00:00,0.0
2024-04-09 18:00:00+00:00,0.0
2024-04-09 19:00:00+00:00,0.0
2024-04-10 13:00:00+00:00,0.0
2024-04-10 14:00:00+00:00,0.0
2024-04-10 15:00:00+00:00,0.0
2024-04-10 16:00:00+00:00,0.0
2024-04-10 17:00:00+00:00,0.0
2024-04-10 18:00:00+00:00,0.0
2024-04-10 19:00:00+00:00,0.0
2024-04-11 13:00:00+00:00,0.0
2024-04-11 14:00:00+00:00,0.0
2024-04-11 15:00:00+00:00,0.0
2024-04-11 16:00:00+00:00,0.0
2024-04-11 17:00:00+00:00,0.0
2024-04-11 18:00:00+00:00,0.0
2024-04-11 19:00:00+00:00,0.0
2024-04-12 13:00:00+00:00,0.0
2024-04-12 14:00:00+00:00,0.0
2024-04-12 15:00:00+00:00,0.0
2024-04-12 16:00:00+00:00,0.0
2024-04-12 17:00:00+00:00,0.0
2024-04-12 18:00:00+00:00,0.0
2024-04-12 19:00:00+00:00,0.0
2024-04-15 13:00:00+00:00,0.0
2024-04-15 14:00:00+00:00,0.0
2024-04-15 15:00:00+00:00,0.0
2024-04-15 16:00:00+00:00,0.0
2024-04-15 17:00:00+00:00,0.0
2024-04-15 18:00:00+00:00,0.0
2024-04-15 19:00:00+00:00,0.0
2024-04-16 13:00:00+00:00,0.0
2024-04-16 14:00:00+00:00,0.0
2024-04-16 15:00:00+00:00,0.0
2024-04-16 16:00:00+00:00,0.0
2024-04-16 17:00:00+00:00,0.0
2024-04-16 18:00:00+00:00,0.0
2024-04-16 19:00:00+00:00,0.0
2024-04-17 13:00:00+00:00,0.0
2024-04-17 14:00:00+00:00,0.0
2024-04-17 15:00:00+00:00,0.0
2024-04-17 16:00:00+00:00,0.0
2024-04-17 17:00:00+00:00,0.0
2024-04-17 18:00:00+00:00,0.0
2024-04-17 19:00:00+00:00,0.0
2024-04-18 13:00:00+00:00,0.0
2024-04-18 14:00:00+00:00,0.0
2024-04-18 15:00:00+00:00,0.0
2024-04-18 16:00:00+00:00,0.0
2024-04-18 17:00:00+00:00,0.0
2024-04-18 18:00:00+00:00,0.0
2024-04-18 19:00:00+00:00,0.0
2024-04-19 13:00:00+00:00,0.0
2024-04-19 14:00:00+00:00,0.0
2024-04-19 15:00:00+00:00,0.0
2024-04-19 16:00:00+00:00,0.0
2024-04-19 17:00:00+00:00,0.0
2024-04-19 18:00:00+00:00,0.0
2024-04-19 19:00:00+00:00,0.0
2024-04-22 13:00:00+00:00,0.0
2024-04-22 14:00:00+00:00,0.0
2024-04-22 15:00:00+00:00,0.0
2024-04-22 16:00:00+00:00,0.0
2024-04-22 17:00:00+00:00,0.0
2024-04-22 18:00:00+00:00,0.0
2024-04-22 19:00:00+00:00,0.0
2024-04-23 13:00:00+00:00,0.0
2024-04-23 14:00:00+00:00,0.0
2024-04-23 15:00:00+00:00,0.0
2024-04-23 16:00:00+00:00,0.0
2024-04-23 17:00:00+00:00,0.0
2024-04-23 18:00:00+00:00,0.0
2024-04-23 19:00:00+00:00,0.0
2024-04-24 13:00:00+00:00,0.0
2024-04-24 14:00:00+00:00,0.0
2024-04-24 15:00:00+00:00,0.0
2024-04-24 16:00:00+00:00,0.0
2024-04-24 17:00:00+00:00,0.0
2024-04-24 18:00:00+00:00,0.0
2024-04-24 19:00:00+00:00,0.0
2024-04-25 13:00:00+00:00,0.0
2024-04-25 14:00:00+00:00,0.0
2024-04-25 15:00:00+00:00,0.0
2024-04-25 16:00:00+00:00,0.0
2024-04-25 17:00:00+00:00,0.0
2024-04-25 18:00:00+00:00,0.0
2024-04-25 19:00:00+00:00,0.0
2024-04-26 13:00:00+00:00,0.0
2024-04-26 14:00:00+00:00,0.0
2024-04-26 15:00:00+00:00,0.0
2024-04-26 16:00:00+00:00,0.0
2024-04-26 17:00:00+00:00,0.0
2024-04-26 18:00:00+00:00,0.0
2024-04-26 19:00:00+00:00,0.0
2024-04-29 13:00:00+00:00,0.0
2024-04-29 14:00:00+00:00,0.0
2024-04-29 15:00:00+00:00,0.0
2024-04-29 16:00:00+00:00,0.0
2024-04-29 17:00:00+00:00,0.0
2024-04-29 18:00:00+00:00,0.0
2024-04-29 19:00:00+00:00,0.0
2024-04-30 13:00:00+00:00,0.0
2024-04-30 14:00:00+00:00,0.0
2024-04-30 15:00:00+00:00,0.0
2024-04-30 16:00:00+00:00,0.0
2024-04-30 17:00:00+00:00,0.0
2024-04-30 18:00:00+00:00,0.0
2024-04-30 19:00:00+00:00,0.0
2024-05-01 13:00:00+00:00,0.0
2024-05-01 14:00:00+00:00,0.0
2024-05-01 15:00:00+00:00,0.0
2024-05-01 16:00:00+00:00,0.0
2024-05-01 17:00:00+00:00,0.0
2024-05-01 18:00:00+00:00,0.0
2024-05-01 19:00:00+00:00,0.0
2024-05-02 13:00:00+00:00,0.0
2024-05-02 14:00:00+00:00,0.0
2024-05-02 15:00:00+00:00,0.0
2024-05-02 16:00:00+00:00,0.0
2024-05-02 17:00:00+00:00,0.0
2024-05-02 18:00:00+00:00,0.0
2024-05-02 19:00:00+00:00,0.0
2024-05-03 13:00:00+00:00,0.0
2024-05-03 14:00:00+00:00,0.0
2024-05-03 15:00:00+00:00,0.0
2024-05-03 16:00:00+00:00,0.0
2024-05-03 17:00:00+00:00,0.0
2024-05-03 18:00:00+00:00,0.0
2024-05-03 19:00:00+00:00,0.0
2024-05-06 13:00:00+00:00,0.0
2024-05-06 14:00:00+00:00,0.0
2024-05-06 15:00:00+00:00,0.0
2024-05-06 16:00:00+00:00,0.0
2024-05-06 17:00:00+00:00,0.0
2024-05-06 18:00:00+00:00,0.0
2024-05-06 19:00:00+00:00,0.0
2024-05-07 13:00:00+00:00,0.0
2024-05-07 14:00:00+00:00,0.0
2024-05-07 15:00:00+00:00,0.0
2024-05-07 16:00:00+00:00,0.0
2024-05-07 17:00:00+00:00,0.0
2024-05-07 18:00:00+00:00,0.0
2024-05-07 19:00:00+00:00,0.0
2024-05-08 13:00:00+00:00,0.0
2024-05-08 14:00:00+00:00,0.0
2024-05-08 15:00:00+00:00,0.0
2024-05-08 16:00:00+00:00,0.0
2024-05-08 17:00:00+00:00,0.0
2024-05-08 18:00:00+00:00,0.0
2024-05-08 19:00:00+00:00,0.0
2024-05-09 13:00:00+00:00,0.0
2024-05-09 14:00:00+00:00,0.0
2024-05-09 15:00:00+00:00,0.0
2024-05-09 16:00:00+00:00,0.0
2024-05-09 17:00:00+00:00,0.0
2024-05-09 18:00:00+00:00,0.0
2024-05-09 19:00:00+00:00,0.0
2024-05-10 13:00:00+00:00,0.0
2024-05-10 14:00:00+00:00,0.0
2024-05-10 15:00:00+00:00,0.0
2024-05-10 16:00:00+00:00,0.0
2024-05-10 17:00:00+00:00,0.0
2024-05-10 18:00:00+00:00,0.0
2024-05-10 19:00:00+00:00,0.0
2024-05-13 13:00:00+00:00,0.0
2024-05-13 14:00:00+00:00,0.0
2024-05-13 15:00:00+00:00,0.0
2024-05-13 16:00:00+00:00,0.0
2024-05-13 17:00:00+00:00,0.0
2024-05-13 18:00:00+00:00,0.0
2024-05-13 19:00:00+00:00,0.0
2024-05-14 13:00:00+00:00,0.0
2024-05-14 14:00:00+00:00,0.0
2024-05-14 15:00:00+00:00,0.0
2024-05-14 16:00:00+00:00,0.0
2024-05-14 17:00:00+00:00,0.0
2024-05-14 18:00:00+00:00,0.0
2024-05-14 19:00:00+00:00,0.0
2024-05-15 13:00:00+00:00,0.0
2024-05-15 14:00:00+00:00,0.0
2024-05-15 15:00:00+00:00,0.0
2024-05-15 16:00:00+00:00,0.0
2024-05-15 17:00:00+00:00,0.0
2024-05-15 18:00:00+00:00,0.0
2024-05-15 19:00:00+00:00,0.0
2024-05-16 13:00:00+00:00,0.0
2024-05-16 14:00:00+00:00,0.0
2024-05-16 15:00:00+00:00,0.0
2024-05-16 16:00:00+00:00,0.0
2024-05-16 17:00:00+00:00,0.0
2024-05-16 18:00:00+00:00,0.0
2024-05-16 19:00:00+00:00,0.0
2024-05-17 13:00:00+00:00,0.0
2024-05-17 14:00:00+00:00,0.0
2024-05-17 15:00:00+00:00,0.0
2024-05-17 16:00:00+00:00,0.0
2024-05-17 17:00:00+00:00,0.0
2024-05-17 18:00:00+00:00,0.0
2024-05-17 19:00:00+00:00,0.0
2024-05-20 13:00:00+00:00,0.0
2024-05-20 14:00:00+00:00,0.0
2024-05-20 15:00:00+00:00,0.0
2024-05-20 16:00:00+00:00,0.0
2024-05-20 17:00:00+00:00,0.0
2024-05-20 18:00:00+00:00,0.0
2024-05-20 19:00:00+00:00,0.0
2024-05-21 13:00:00+00:00,0.0
2024-05-21 14:00:00+00:00,0.0
2024-05-21 15:00:00+00:00,0.0
2024-05-21 16:00:00+00:00,0.0
2024-05-21 17:00:00+00:00,0.0
2024-05-21 18:00:00+00:00,0.0
2024-05-21 19:00:00+00:00,0.0
2024-05-22 13:00:00+00:00,0.0
2024-05-22 14:00:00+00:00,0.0
2024-05-22 15:00:00+00:00,0.0
2024-05-22 16:00:00+00:00,0.0
2024-05-22 17:00:00+00:00,0.0
2024-05-22 18:00:00+00:00,0.0
2024-05-22 19:00:00+00:00,0.0
2024-05-23 13:00:00+00:00,0.0
2024-05-23 14:00:00+00:00,0.0
2024-05-23 15:00:00+00:00,0.0
2024-05-23 16:00:00+00:00,0.0
2024-05-23 17:00:00+00:00,0.0
2024-05-23 18:00:00+00:00,0.0
2024-05-23 19:00:00+00:00,0.0
2024-05-24 13:00:00+00:00,0.0
2024-05-24 14:00:00+00:00,0.0
2024-05-24 15:00:00+00:00,0.0
2024-05-24 16:00:00+00:00,0.0
2024-05-24 17:00:00+00:00,0.0
2024-05-24 18:00:00+00:00,0.0
2024-05-24 19:00:00+00:00,0.0
2024-05-28 13:00:00+00:00,0.0
2024-05-28 14:00:00+00:00,0.0
2024-05-28 15:00:00+00:00,0.0
2024-05-28 16:00:00+00:00,0.0
2024-05-28 17:00:00+00:00,0.0
2024-05-28 18:00:00+00:00,0.0
2024-05-28 19:00:00+00:00,0.0
2024-05-29 13:00:00+00:00,0.0
2024-05-29 14:00:00+00:00,0.0
2024-05-29 15:00:00+00:00,0.0
2024-05-29 16:00:00+00:00,0.0
2024-05-29 17:00:00+00:00,0.0
2024-05-29 18:00:00+00:00,0.0
2024-05-29 19:00:00+00:00,0.0
2024-05-30 13:00:00+00:00,0.0
2024-05-30 14:00:00+00:00,0.0
2024-05-30 15:00:00+00:00,0.0
2024-05-30 16:00:00+00:00,0.0
2024-05-30 17:00:00+00:00,0.0
2024-05-30 18:00:00+00:00,0.0
2024-05-30 19:00:00+00:00,0.0
2024-05-31 13:00:00+00:00,0.0
2024-05-31 14:00:00+00:00,0.0
2024-05-31 15:00:00+00:00,0.0
2024-05-31 16:00:00+00:00,0.0
2024-05-31 17:00:00+00:00,0.0
2024-05-31 18:00:00+00:00,0.0
2024-05-31 19:00:00+00:00,0.0
2024-06-03 13:00:00+00:00,0.0
2024-06-03 14:00:00+00:00,0.0
2024-06-03 15:00:00+00:00,0.0
2024-06-03 16:00:00+00:00,0.0
2024-06-03 17:00:00+00:00,0.0
2024-06-03 18:00:00+00:00,0.0
2024-06-03 19:00:00+00:00,0.0
2024-06-04 13:00:00+00:00,0.0
2024-06-04 14:00:00+00:00,0.0
2024-06-04 15:00:00+00:00,0.0
2024-06-04 16:00:00+00:00,0.0
2024-06-04 17:00:00+00:00,0.0
2024-06-04 18:00:00+00:00,0.0
2024-06-04 19:00:00+00:00,0.0
2024-06-05 13:00:00+00:00,0.0
2024-06-05 14:00:00+00:00,0.0
2024-06-05 17:00:00+00:00,0.0
2024-06-05 19:00:00+00:00,0.0
2024-06-06 13:00:00+00:00,0.0
2024-06-06 14:00:00+00:00,0.0
2024-06-07 13:00:00+00:00,0.0
2024-06-07 14:00:00+00:00,0.0
2024-06-07 15:00:00+00:00,0.0
2024-06-07 16:00:00+00:00,0.0
2024-06-07 17:00:00+00:00,0.0
2024-06-07 18:00:00+00:00,0.0
2024-06-07 19:00:00+00:00,0.0
2024-06-10 13:00:00+00:00,0.0
2024-06-10 14:00:00+00:00,0.0
2024-06-10 16:00:00+00:00,0.0
2024-06-10 17:00:00+00:00,0.0
2024-06-10 18:00:00+00:00,0.0
2024-06-10 19:00:00+00:00,0.0
2024-06-11 13:00:00+00:00,0.0
2024-06-11 14:00:00+00:00,0.0
2024-06-11 15:00:00+00:00,0.0
2024-06-11 17:00:00+00:00,0.0
2024-06-11 18:00:00+00:00,0.0
2024-06-11 19:00:00+00:00,0.0
2024-06-12 13:00:00+00:00,0.0
2024-06-12 15:00:00+00:00,0.0
2024-06-12 18:00:00+00:00,0.0
2024-06-12 19:00:00+00:00,0.0
2024-06-13 13:00:00+00:00,0.0
2024-06-13 14:00:00+00:00,0.0
2024-06-13 15:00:00+00:00,0.0
2024-06-13 17:00:00+00:00,0.0
2024-06-13 18:00:00+00:00,0.0
2024-06-13 19:00:00+00:00,0.0
2024-06-14 13:00:00+00:00,0.0
2024-06-14 14:00:00+00:00,0.0
2024-06-14 15:00:00+00:00,0.0
2024-06-14 17:00:00+00:00,0.0
2024-06-14 19:00:00+00:00,0.0
2024-06-17 13:00:00+00:00,0.0
2024-06-17 14:00:00+00:00,0.0
2024-06-17 16:00:00+00:00,0.0
2024-06-17 17:00:00+00:00,0.0
2024-06-17 18:00:00+00:00,0.0
2024-06-17 19:00:00+00:00,0.0
2024-06-18 15:00:00+00:00,0.0
2024-06-18 16:00:00+00:00,0.0
2024-06-18 17:00:00+00:00,0.0
2024-06-18 18:00:00+00:00,0.0
2024-06-18 19:00:00+00:00,0.0
2024-06-20 13:00:00+00:00,0.0
2024-06-20 15:00:00+00:00,0.0
2024-06-20 16:00:00+00:00,0.0
2024-06-20 17:00:00+00:00,0.0
2024-06-20 18:00:00+00:00,0.0
2024-06-21 13:00:00+00:00,0.0
2024-06-21 17:00:00+00:00,0.0
2024-06-21 19:00:00+00:00,0.0
2024-06-24 13:00:00+00:00,0.0
2024-06-24 14:00:00+00:00,0.0
2024-06-24 15:00:00+00:00,0.0
2024-06-24 19:00:00+00:00,0.0
2024-06-25 13:00:00+00:00,0.0
2024-06-25 14:00:00+00:00,0.0
2024-06-25 15:00:00+00:00,0.0
2024-06-25 16:00:00+00:00,0.0
2024-06-25 17:00:00+00:00,0.0
2024-06-25 19:00:00+00:00,0.0
2024-06-26 13:00:00+00:00,0.0
2024-06-26 14:00:00+00:00,0.0
2024-06-26 15:00:00+00:00,0.0
2024-06-26 16:00:00+00:00,0.0
2024-06-26 18:00:00+00:00,0.0
2024-06-26 19:00:00+00:00,0.0
2024-06-27 14:00:00+00:00,0.0
2024-06-27 18:00:00+00:00,0.0
2024-06-27 19:00:00+00:00,0.0
2024-06-28 13:00:00+00:00,0.0
2024-06-28 15:00:00+00:00,0.0
2024-06-28 17:00:00+00:00,0.0
2024-06-28 18:00:00+00:00,0.0
2024-06-28 19:00:00+00:00,0.0
2024-07-01 13:00:00+00:00,0.0
2024-07-01 14:00:00+00:00,0.0
2024-07-01 15:00:00+00:00,0.0
2024-07-01 17:00:00+00:00,0.0
2024-07-01 18:00:00+00:00,0.0
2024-07-02 13:00:00+00:00,0.0
2024-07-02 16:00:00+00:00,0.0
2024-07-02 18:00:00+00:00,0.0
2024-07-02 19:00:00+00:00,0.0
2024-07-03 13:00:00+00:00,0.0
2024-07-03 14:00:00+00:00,0.0
2024-07-03 15:00:00+00:00,0.0
2024-07-05 13:00:00+00:00,0.0
2024-07-05 15:00:00+00:00,0.0
2024-07-05 16:00:00+00:00,0.0
2024-07-05 18:00:00+00:00,0.0
2024-07-05 19:00:00+00:00,0.0
2024-07-08 13:00:00+00:00,0.0
2024-07-08 14:00:00+00:00,0.0
2024-07-08 15:00:00+00:00,0.0
2024-07-08 16:00:00+00:00,0.0
2024-07-08 17:00:00+00:00,0.0
2024-07-08 18:00:00+00:00,0.0
2024-07-08 19:00:00+00:00,0.0
2024-07-09 13:00:00+00:00,0.0
2024-07-09 14:00:00+00:00,0.0
2024-07-09 16:00:00+00:00,0.0
2024-07-09 17:00:00+00:00,0.0
2024-07-09 18:00:00+00:00,0.0
2024-07-10 13:00:00+00:00,0.0
2024-07-10 14:00:00+00:00,0.0
2024-07-10 15:00:00+00:00,0.0
2024-07-10 16:00:00+00:00,0.0
2024-07-10 17:00:00+00:00,0.0
2024-07-10 18:00:00+00:00,0.0
2024-07-10 19:00:00+00:00,0.0
2024-07-11 13:00:00+00:00,0.0
2024-07-11 14:00:00+00:00,0.0
2024-07-11 15:00:00+00:00,0.0
2024-07-11 16:00:00+00:00,0.0
2024-07-11 17:00:00+00:00,0.0
2024-07-11 18:00:00+00:00,0.0
2024-07-12 13:00:00+00:00,0.0
2024-07-12 14:00:00+00:00,0.0
2024-07-12 16:00:00+00:00,0.0
2024-07-15 14:00:00+00:00,0.0
2024-07-15 15:00:00+00:00,0.0
2024-07-15 16:00:00+00:00,0.0
2024-07-15 17:00:00+00:00,0.0
2024-07-15 18:00:00+00:00,0.0
2024-07-15 19:00:00+00:00,0.0
2024-07-16 13:00:00+00:00,0.0
2024-07-16 14:00:00+00:00,0.0
2024-07-16 17:00:00+00:00,0.0
2024-07-16 18:00:00+00:00,0.0
2024-07-16 19:00:00+00:00,0.0
2024-07-17 13:00:00+00:00,0.0
2024-07-17 14:00:00+00:00,0.0
2024-07-17 16:00:00+00:00,0.0
2024-07-17 17:00:00+00:00,0.0
2024-07-17 18:00:00+00:00,0.0
2024-07-17 19:00:00+00:00,0.0
2024-07-18 13:00:00+00:00,0.0
2024-07-18 14:00:00+00:00,0.0
2024-07-18 18:00:00+00:00,0.0
2024-07-18 19:00:00+00:00,0.0
2024-07-19 13:00:00+00:00,0.0
2024-07-19 14:00:00+00:00,0.0
2024-07-19 15:00:00+00:00,0.0
2024-07-19 17:00:00+00:00,0.0
2024-07-19 19:00:00+00:00,0.0
2024-07-22 13:00:00+00:00,0.0
2024-07-22 14:00:00+00:00,0.0
2024-07-22 15:00:00+00:00,0.0
2024-07-22 18:00:00+00:00,0.0
2024-07-22 19:00:00+00:00,0.0
2024-07-23 13:00:00+00:00,0.0
2024-07-23 15:00:00+00:00,0.0
2024-07-23 18:00:00+00:00,0.0
2024-07-23 19:00:00+00:00,0.0
2024-07-24 13:00:00+00:00,0.0
2024-07-24 14:00:00+00:00,0.0
2024-07-24 15:00:00+00:00,0.0
2024-07-24 16:00:00+00:00,0.0
2024-07-24 17:00:00+00:00,0.0
2024-07-24 18:00:00+00:00,0.0
2024-07-24 19:00:00+00:00,0.0
2024-07-25 13:00:00+00:00,0.0
2024-07-25 14:00:00+00:00,0.0
2024-07-25 15:00:00+00:00,0.0
2024-07-25 16:00:00+00:00,0.0
2024-07-25 17:00:00+00:00,0.0
2024-07-25 18:00:00+00:00,0.0
2024-07-25 19:00:00+00:00,0.0
2024-07-26 13:00:00+00:00,0.0
2024-07-26 14:00:00+00:00,0.0
2024-07-26 15:00:00+00:00,0.0
2024-07-26 16:00:00+00:00,0.0
2024-07-26 17:00:00+00:00,0.0
2024-07-26 18:00:00+00:00,0.0
2024-07-26 19:00:00+00:00,0.0
2024-07-29 13:00:00+00:00,0.0
2024-07-29 14:00:00+00:00,0.0
2024-07-29 15:00:00+00:00,0.0
2024-07-29 16:00:00+00:00,0.0
2024-07-29 18:00:00+00:00,0.0
2024-07-30 13:00:00+00:00,0.0
2024-07-30 14:00:00+00:00,0.0
2024-07-30 15:00:00+00:00,0.0
2024-07-30 16:00:00+00:00,0.0
2024-07-30 17:00:00+00:00,0.0
2024-07-30 18:00:00+00:00,0.0
2024-07-30 19:00:00+00:00,0.0
2024-07-31 13:00:00+00:00,0.0
2024-07-31 14:00:00+00:00,0.0
2024-07-31 16:00:00+00:00,0.0
2024-07-31 17:00:00+00:00,0.0
2024-07-31 18:00:00+00:00,0.0
2024-07-31 19:00:00+00:00,0.0
2024-08-01 13:00:00+00:00,0.0
2024-08-01 14:00:00+00:00,0.0
2024-08-01 15:00:00+00:00,0.0
2024-08-01 16:00:00+00:00,0.0
2024-08-01 17:00:00+00:00,0.0
2024-08-01 18:00:00+00:00,0.0
2024-08-01 19:00:00+00:00,0.0
2024-08-02 13:00:00+00:00,0.0
2024-08-02 14:00:00+00:00,0.0
2024-08-02 15:00:00+00:00,0.0
2024-08-02 16:00:00+00:00,0.0
2024-08-02 17:00:00+00:00,0.0
2024-08-02 19:00:00+00:00,0.0
2024-08-05 13:00:00+00:00,0.0
2024-08-05 14:00:00+00:00,0.0
2024-08-05 15:00:00+00:00,0.0
2024-08-05 16:00:00+00:00,0.0
2024-08-05 17:00:00+00:00,0.0
2024-08-05 18:00:00+00:00,0.0
2024-08-05 19:00:00+00:00,0.0
2024-08-06 13:00:00+00:00,0.0
2024-08-06 14:00:00+00:00,0.0
2024-08-06 15:00:00+00:00,0.0
2024-08-06 16:00:00+00:00,0.0
2024-08-06 17:00:00+00:00,0.0
2024-08-06 18:00:00+00:00,0.0
2024-08-06 19:00:00+00:00,0.0
2024-08-07 13:00:00+00:00,0.0
2024-08-07 14:00:00+00:00,0.0
2024-08-07 15:00:00+00:00,0.0
2024-08-07 16:00:00+00:00,0.0
2024-08-07 17:00:00+00:00,0.0
2024-08-07 19:00:00+00:00,0.0
2024-08-08 13:00:00+00:00,0.0
2024-08-08 14:00:00+00:00,0.0
2024-08-08 15:00:00+00:00,0.0
2024-08-08 16:00:00+00:00,0.0
2024-08-08 17:00:00+00:00,0.0
2024-08-08 18:00:00+00:00,0.0
2024-08-08 19:00:00+00:00,0.0
2024-08-09 13:00:00+00:00,0.0
2024-08-09 14:00:00+00:00,0.0
2024-08-09 15:00:00+00:00,0.0
2024-08-09 16:00:00+00:00,0.0
2024-08-09 17:00:00+00:00,0.0
2024-08-09 18:00:00+00:00,0.0
2024-08-12 14:00:00+00:00,0.0
2024-08-12 16:00:00+00:00,0.0
2024-08-12 17:00:00+00:00,0.0
2024-08-12 18:00:00+00:00,0.0
2024-08-12 19:00:00+00:00,0.0
2024-08-13 13:00:00+00:00,0.0
2024-08-13 16:00:00+00:00,0.0
2024-08-13 18:00:00+00:00,0.0
2024-08-13 19:00:00+00:00,0.0
2024-08-14 13:00:00+00:00,0.0
2024-08-14 14:00:00+00:00,0.0
2024-08-14 15:00:00+00:00,0.0
2024-08-14 18:00:00+00:00,0.0
2024-08-14 19:00:00+00:00,0.0
2024-08-15 13:00:00+00:00,0.0
2024-08-15 14:00:00+00:00,0.0
2024-08-15 16:00:00+00:00,0.0
2024-08-15 17:00:00+00:00,0.0
2024-08-15 18:00:00+00:00,0.0
2024-08-16 13:00:00+00:00,0.0
2024-08-16 14:00:00+00:00,0.0
2024-08-16 15:00:00+00:00,0.0
2024-08-16 17:00:00+00:00,0.0
2024-08-16 18:00:00+00:00,0.0
2024-08-16 19:00:00+00:00,0.0
2024-08-19 13:00:00+00:00,0.0
2024-08-19 14:00:00+00:00,0.0
2024-08-19 19:00:00+00:00,0.0
2024-08-20 13:00:00+00:00,0.0
2024-08-20 15:00:00+00:00,0.0
2024-08-20 17:00:00+00:00,0.0
2024-08-20 18:00:00+00:00,0.0
2024-08-21 13:00:00+00:00,0.0
2024-08-21 14:00:00+00:00,0.0
2024-08-21 15:00:00+00:00,0.0
2024-08-21 16:00:00+00:00,0.0
2024-08-21 17:00:00+00:00,0.0
2024-08-21 19:00:00+00:00,0.0
2024-08-22 13:00:00+00:00,0.0
2024-08-22 14:00:00+00:00,0.0
2024-08-22 15:00:00+00:00,0.0
2024-08-22 17:00:00+00:00,0.0
2024-08-22 19:00:00+00:00,0.0
2024-08-23 13:00:00+00:00,0.0
2024-08-23 14:00:00+00:00,0.0
2024-08-23 15:00:00+00:00,0.0
2024-08-23 16:00:00+00:00,0.0
2024-08-23 17:00:00+00:00,0.0
2024-08-23 18:00:00+00:00,0.0
2024-08-26 13:00:00+00:00,0.0
2024-08-26 14:00:00+00:00,0.0
2024-08-26 15:00:00+00:00,0.0
2024-08-26 18:00:00+00:00,0.0
2024-08-26 19:00:00+00:00,0.0
2024-08-27 13:00:00+00:00,0.0
2024-08-27 14:00:00+00:00,0.0
2024-08-27 16:00:00+00:00,0.0
2024-08-27 19:00:00+00:00,0.0
2024-08-28 16:00:00+00:00,0.0
2024-08-28 17:00:00+00:00,0.0
2024-08-28 19:00:00+00:00,0.0
2024-08-29 13:00:00+00:00,0.0
2024-08-29 14:00:00+00:00,0.0
2024-08-29 15:00:00+00:00,0.0
2024-08-29 16:00:00+00:00,0.0
2024-08-29 17:00:00+00:00,0.0
2024-08-29 19:00:00+00:00,0.0
2024-08-30 13:00:00+00:00,0.0
2024-08-30 14:00:00+00:00,0.0
2024-08-30 16:00:00+00:00,0.0
2024-08-30 19:00:00+00:00,0.0
2024-09-03 13:00:00+00:00,0.0
2024-09-03 14:00:00+00:00,0.0
2024-09-03 16:00:00+00:00,0.0
2024-09-03 17:00:00+00:00,0.0
2024-09-03 19:00:00+00:00,0.0
2024-09-04 13:00:00+00:00,0.0
2024-09-04 14:00:00+00:00,0.0
2024-09-04 19:00:00+00:00,0.0
2024-09-05 13:00:00+00:00,0.0
2024-09-05 14:00:00+00:00,0.0
2024-09-05 15:00:00+00:00,0.0
2024-09-05 16:00:00+00:00,0.0
2024-09-05 17:00:00+00:00,0.0
2024-09-05 19:00:00+00:00,0.0
2024-09-06 13:00:00+00:00,0.0
2024-09-06 14:00:00+00:00,0.0
2024-09-06 16:00:00+00:00,0.0
2024-09-06 18:00:00+00:00,0.0
2024-09-06 19:00:00+00:00,0.0
2024-09-09 13:00:00+00:00,0.0
2024-09-09 14:00:00+00:00,0.0
2024-09-09 15:00:00+00:00,0.0
2024-09-09 17:00:00+00:00,0.0
2024-09-09 18:00:00+00:00,0.0
2024-09-09 19:00:00+00:00,0.0
2024-09-10 13:00:00+00:00,0.0
2024-09-10 14:00:00+00:00,0.0
2024-09-10 15:00:00+00:00,0.0
2024-09-10 17:00:00+00:00,0.0
2024-09-10 18:00:00+00:00,0.0
2024-09-10 19:00:00+00:00,0.0
2024-09-11 13:00:00+00:00,0.0
2024-09-11 14:00:00+00:00,0.0
2024-09-11 15:00:00+00:00,0.0
2024-09-11 16:00:00+00:00,0.0
2024-09-11 19:00:00+00:00,0.0
2024-09-12 13:00:00+00:00,0.0
2024-09-12 14:00:00+00:00,0.0
2024-09-12 15:00:00+00:00,0.0
2024-09-12 16:00:00+00:00,0.0
2024-09-12 17:00:00+00:00,0.0
2024-09-12 18:00:00+00:00,0.0
2024-09-12 19:00:00+00:00,0.0
2024-09-13 13:00:00+00:00,0.0
2024-09-13 14:00:00+00:00,0.0
2024-09-13 15:00:00+00:00,0.0
2024-09-16 13:00:00+00:00,0.0
2024-09-16 14:00:00+00:00,0.0
2024-09-16 15:00:00+00:00,0.0
2024-09-16 16:00:00+00:00,0.0
2024-09-16 17:00:00+00:00,0.0
2024-09-16 18:00:00+00:00,0.0
2024-09-16 19:00:00+00:00,0.0
2024-09-17 13:00:00+00:00,0.0
2024-09-17 14:00:00+00:00,0.0
2024-09-17 16:00:00+00:00,0.0
2024-09-17 18:00:00+00:00,0.0
2024-09-17 19:00:00+00:00,0.0
2024-09-18 13:00:00+00:00,0.0
2024-09-18 14:00:00+00:00,0.0
2024-09-18 15:00:00+00:00,0.0
2024-09-18 17:00:00+00:00,0.0
2024-09-18 18:00:00+00:00,0.0
2024-09-18 19:00:00+00:00,0.0
2024-09-19 13:00:00+00:00,0.0
2024-09-19 14:00:00+00:00,0.0
2024-09-19 15:00:00+00:00,0.0
2024-09-19 17:00:00+00:00,0.0
2024-09-19 18:00:00+00:00,0.0
2024-09-20 13:00:00+00:00,0.0
2024-09-20 18:00:00+00:00,0.0
2024-09-20 19:00:00+00:00,0.0
2024-09-23 13:00:00+00:00,0.0
2024-09-23 14:00:00+00:00,0.0
2024-09-23 15:00:00+00:00,0.0
2024-09-23 16:00:00+00:00,0.0
2024-09-23 18:00:00+00:00,0.0
2024-09-23 19:00:00+00:00,0.0
2024-09-24 13:00:00+00:00,0.0
2024-09-24 14:00:00+00:00,0.0
2024-09-24 15:00:00+00:00,0.0
2024-09-24 18:00:00+00:00,0.0
2024-09-24 19:00:00+00:00,0.0
2024-09-25 13:00:00+00:00,0.0
2024-09-25 14:00:00+00:00,0.0
2024-09-25 16:00:00+00:00,0.0
2024-09-25 18:00:00+00:00,0.0
2024-09-26 13:00:00+00:00,0.0
2024-09-26 14:00:00+00:00,0.0
2024-09-26 15:00:00+00:00,0.0
2024-09-26 16:00:00+00:00,0.0
2024-09-26 17:00:00+00:00,0.0
2024-09-26 18:00:00+00:00,0.0
2024-09-26 19:00:00+00:00,0.0
2024-09-27 13:00:00+00:00,0.0
2024-09-27 14:00:00+00:00,0.0
2024-09-27 16:00:00+00:00,0.0
2024-09-27 17:00:00+00:00,0.0
2024-09-27 18:00:00+00:00,0.0
2024-09-27 19:00:00+00:00,0.0
2024-09-30 13:00:00+00:00,0.0
2024-09-30 14:00:00+00:00,0.0
2024-09-30 15:00:00+00:00,0.0
2024-09-30 16:00:00+00:00,0.0
2024-09-30 17:00:00+00:00,0.0
2024-09-30 19:00:00+00:00,0.0
2024-10-01 13:00:00+00:00,0.0
2024-10-01 14:00:00+00:00,0.0
2024-10-01 15:00:00+00:00,0.0
2024-10-01 16:00:00+00:00,0.0
2024-10-01 17:00:00+00:00,0.0
2024-10-01 19:00:00+00:00,0.0
2024-10-02 13:00:00+00:00,0.0
2024-10-02 14:00:00+00:00,0.0
2024-10-02 15:00:00+00:00,0.0
2024-10-02 16:00:00+00:00,0.0
2024-10-02 18:00:00+00:00,0.0
2024-10-02 19:00:00+00:00,0.0
2024-10-03 13:00:00+00:00,0.0
2024-10-03 19:00:00+00:00,0.0
2024-10-04 13:00:00+00:00,0.0
2024-10-04 15:00:00+00:00,0.0
2024-10-04 16:00:00+00:00,0.0
2024-10-04 17:00:00+00:00,0.0
2024-10-04 18:00:00+00:00,0.0
2024-10-04 19:00:00+00:00,0.0
2024-10-07 13:00:00+00:00,0.0
2024-10-07 14:00:00+00:00,0.0
2024-10-07 16:00:00+00:00,0.0
2024-10-07 18:00:00+00:00,0.0
2024-10-08 13:00:00+00:00,0.0
2024-10-08 14:00:00+00:00,0.0
2024-10-08 15:00:00+00:00,0.0
2024-10-08 16:00:00+00:00,0.0
2024-10-08 17:00:00+00:00,0.0
2024-10-09 13:00:00+00:00,0.0
2024-10-09 14:00:00+00:00,0.0
2024-10-09 16:00:00+00:00,0.0
2024-10-10 13:00:00+00:00,0.0
2024-10-10 14:00:00+00:00,0.0
2024-10-10 15:00:00+00:00,0.0
2024-10-10 16:00:00+00:00,0.0
2024-10-11 13:00:00+00:00,0.0
2024-10-11 17:00:00+00:00,0.0
2024-10-14 13:00:00+00:00,0.0
2024-10-14 14:00:00+00:00,0.0
2024-10-14 15:00:00+00:00,0.0
2024-10-14 18:00:00+00:00,0.0
2024-10-14 19:00:00+00:00,0.0
2024-10-15 13:00:00+00:00,0.0
2024-10-15 14:00:00+00:00,0.0
2024-10-15 16:00:00+00:00,0.0
2024-10-15 17:00:00+00:00,0.0
2024-10-15 18:00:00+00:00,0.0
2024-10-16 13:00:00+00:00,0.0
2024-10-16 14:00:00+00:00,0.0
2024-10-16 15:00:00+00:00,0.0
2024-10-16 17:00:00+00:00,0.0
2024-10-16 19:00:00+00:00,0.0
2024-10-17 14:00:00+00:00,0.0
2024-10-17 17:00:00+00:00,0.0
2024-10-17 19:00:00+00:00,0.0
2024-10-18 13:00:00+00:00,0.0
2024-10-18 14:00:00+00:00,0.0
2024-10-18 15:00:00+00:00,0.0
2024-10-18 16:00:00+00:00,0.0
2024-10-18 18:00:00+00:00,0.0
2024-10-18 19:00:00+00:00,0.0
2024-10-21 14:00:00+00:00,0.0
2024-10-21 15:00:00+00:00,0.0
2024-10-21 16:00:00+00:00,0.0
2024-10-21 17:00:00+00:00,0.0
2024-10-21 18:00:00+00:00,0.0
2024-10-21 19:00:00+00:00,0.0
2024-10-22 13:00:00+00:00,0.0
2024-10-22 14:00:00+00:00,0.0
2024-10-22 16:00:00+00:00,0.0
2024-10-22 17:00:00+00:00,0.0
2024-10-22 18:00:00+00:00,0.0
2024-10-22 19:00:00+00:00,0.0
2024-10-23 13:00:00+00:00,0.0
2024-10-23 14:00:00+00:00,0.0
2024-10-23 15:00:00+00:00,0.0
2024-10-23 16:00:00+00:00,0.0
2024-10-23 17:00:00+00:00,0.0
2024-10-23 18:00:00+00:00,0.0
2024-10-23 19:00:00+00:00,0.0
2024-10-24 13:00:00+00:00,0.0
2024-10-24 14:00:00+00:00,0.0
2024-10-24 15:00:00+00:00,0.0
2024-10-24 16:00:00+00:00,0.0
2024-10-24 17:00:00+00:00,0.0
2024-10-24 18:00:00+00:00,0.0
2024-10-25 13:00:00+00:00,0.0
2024-10-25 15:00:00+00:00,0.0
2024-10-25 16:00:00+00:00,0.0
2024-10-25 19:00:00+00:00,0.0
2024-10-28 13:00:00+00:00,0.0
2024-10-28 14:00:00+00:00,0.0
2024-10-28 15:00:00+00:00,0.0
2024-10-28 16:00:00+00:00,0.0
2024-10-28 17:00:00+00:00,0.0
2024-10-28 18:00:00+00:00,0.0
2024-10-28 19:00:00+00:00,0.0
2024-10-29 13:00:00+00:00,0.0
2024-10-29 14:00:00+00:00,0.0
2024-10-29 15:00:00+00:00,0.0
2024-10-29 16:00:00+00:00,0.0
2024-10-29 17:00:00+00:00,0.0
2024-10-29 18:00:00+00:00,0.0
2024-10-29 19:00:00+00:00,0.0
2024-10-30 13:00:00+00:00,0.0
2024-10-30 14:00:00+00:00,0.0
2024-10-30 15:00:00+00:00,0.0
2024-10-30 16:00:00+00:00,0.0
2024-10-30 17:00:00+00:00,0.0
2024-10-30 18:00:00+00:00,0.0
2024-10-30 19:00:00+00:00,0.0
2024-10-31 13:00:00+00:00,0.0
2024-10-31 15:00:00+00:00,0.0
2024-10-31 18:00:00+00:00,0.0
2024-10-31 19:00:00+00:00,0.0
2024-11-01 13:00:00+00:00,0.0
2024-11-01 15:00:00+00:00,0.0
2024-11-01 17:00:00+00:00,0.0
2024-11-01 18:00:00+00:00,0.0
2024-11-01 19:00:00+00:00,0.0
2024-11-04 14:00:00+00:00,0.0
2024-11-04 16:00:00+00:00,0.0
2024-11-04 18:00:00+00:00,0.0
2024-11-04 19:00:00+00:00,0.0
2024-11-04 20:00:00+00:00,0.0
2024-11-05 14:00:00+00:00,0.0
2024-11-05 15:00:00+00:00,0.0
2024-11-05 16:00:00+00:00,0.0
2024-11-05 18:00:00+00:00,0.0
2024-11-05 19:00:00+00:00,0.0
2024-11-05 20:00:00+00:00,0.0
2024-11-06 14:00:00+00:00,0.0
2024-11-06 15:00:00+00:00,0.0
2024-11-06 16:00:00+00:00,0.0
2024-11-06 17:00:00+00:00,0.0
2024-11-06 19:00:00+00:00,0.0
2024-11-06 20:00:00+00:00,0.0
2024-11-07 14:00:00+00:00,0.0
2024-11-07 15:00:00+00:00,0.0
2024-11-07 17:00:00+00:00,0.0
2024-11-07 18:00:00+00:00,0.0
2024-11-07 19:00:00+00:00,0.0
2024-11-08 14:00:00+00:00,0.0
2024-11-08 15:00:00+00:00,0.0
2024-11-08 16:00:00+00:00,0.0
2024-11-08 17:00:00+00:00,0.0
2024-11-08 18:00:00+00:00,0.0
2024-11-08 19:00:00+00:00,0.0
2024-11-08 20:00:00+00:00,0.0
2024-11-11 14:00:00+00:00,0.0
2024-11-11 15:00:00+00:00,0.0
2024-11-11 18:00:00+00:00,0.0
2024-11-11 19:00:00+00:00,0.0
2024-11-11 20:00:00+00:00,0.0
2024-11-12 14:00:00+00:00,0.0
2024-11-12 15:00:00+00:00,0.0
2024-11-12 16:00:00+00:00,0.0
2024-11-12 17:00:00+00:00,0.0
2024-11-12 18:00:00+00:00,0.0
2024-11-12 19:00:00+00:00,0.0
2024-11-12 20:00:00+00:00,0.0
2024-11-13 14:00:00+00:00,0.0
2024-11-13 15:00:00+00:00,0.0
2024-11-13 17:00:00+00:00,0.0
2024-11-13 18:00:00+00:00,0.0
2024-11-13 19:00:00+00:00,0.0
2024-11-13 20:00:00+00:00,0.0
2024-11-14 15:00:00+00:00,0.0
2024-11-14 16:00:00+00:00,0.0
2024-11-14 17:00:00+00:00,0.0
2024-11-14 18:00:00+00:00,0.0
2024-11-14 19:00:00+00:00,0.0
2024-11-14 20:00:00+00:00,0.0
2024-11-15 14:00:00+00:00,0.0
2024-11-15 15:00:00+00:00,0.0
2024-11-15 16:00:00+00:00,0.0
2024-11-15 17:00:00+00:00,0.0
2024-11-15 18:00:00+00:00,0.0
2024-11-15 19:00:00+00:00,0.0
2024-11-15 20:00:00+00:00,0.0
2024-11-18 14:00:00+00:00,0.0
2024-11-18 15:00:00+00:00,0.0
2024-11-18 17:00:00+00:00,0.0
2024-11-18 18:00:00+00:00,0.0
2024-11-18 19:00:00+00:00,0.0
2024-11-18 20:00:00+00:00,0.0
2024-11-19 14:00:00+00:00,0.0
2024-11-19 15:00:00+00:00,0.0
2024-11-19 16:00:00+00:00,0.0
2024-11-19 17:00:00+00:00,0.0
2024-11-19 18:00:00+00:00,0.0
2024-11-19 19:00:00+00:00,0.0
2024-11-19 20:00:00+00:00,0.0
2024-11-20 14:00:00+00:00,0.0
2024-11-20 15:00:00+00:00,0.0
2024-11-20 16:00:00+00:00,0.0
2024-11-20 17:00:00+00:00,0.0
2024-11-20 18:00:00+00:00,0.0
2024-11-20 19:00:00+00:00,0.0
2024-11-20 20:00:00+00:00,0.0
2024-11-21 14:00:00+00:00,0.0
2024-11-21 15:00:00+00:00,0.0
2024-11-21 16:00:00+00:00,0.0
2024-11-21 17:00:00+00:00,0.0
2024-11-21 18:00:00+00:00,0.0
2024-11-21 19:00:00+00:00,0.0
2024-11-21 20:00:00+00:00,0.0
2024-11-22 14:00:00+00:00,0.0
2024-11-22 15:00:00+00:00,0.0
2024-11-22 16:00:00+00:00,0.0
2024-11-22 18:00:00+00:00,0.0
2024-11-22 19:00:00+00:00,0.0
2024-11-25 14:00:00+00:00,0.0
2024-11-25 15:00:00+00:00,0.0
2024-11-25 16:00:00+00:00,0.0
2024-11-25 17:00:00+00:00,0.0
2024-11-25 18:00:00+00:00,0.0
2024-11-25 19:00:00+00:00,0.0
2024-11-25 20:00:00+00:00,0.0
2024-11-26 14:00:00+00:00,0.0
2024-11-26 15:00:00+00:00,0.0
2024-11-26 16:00:00+00:00,0.0
2024-11-26 17:00:00+00:00,0.0
2024-11-26 18:00:00+00:00,0.0
2024-11-26 19:00:00+00:00,0.0
2024-11-26 20:00:00+00:00,0.0
2024-11-27 14:00:00+00:00,0.0
2024-11-27 15:00:00+00:00,0.0
2024-11-27 16:00:00+00:00,0.0
2024-11-27 17:00:00+00:00,0.0
2024-11-27 18:00:00+00:00,0.0
2024-11-27 19:00:00+00:00,0.0
2024-11-27 20:00:00+00:00,0.0
2024-11-29 14:00:00+00:00,0.0
2024-11-29 15:00:00+00:00,0.0
2024-11-29 16:00:00+00:00,0.0
2024-12-02 14:00:00+00:00,0.0
2024-12-02 15:00:00+00:00,0.0
2024-12-02 17:00:00+00:00,0.0
2024-12-02 18:00:00+00:00,0.0
2024-12-02 19:00:00+00:00,0.0
2024-12-02 20:00:00+00:00,0.0
2024-12-03 14:00:00+00:00,0.0
2024-12-03 15:00:00+00:00,0.0
2024-12-03 16:00:00+00:00,0.0
2024-12-03 17:00:00+00:00,0.0
2024-12-03 18:00:00+00:00,0.0
2024-12-03 19:00:00+00:00,0.0
2024-12-03 20:00:00+00:00,0.0
2024-12-04 14:00:00+00:00,0.0
2024-12-04 15:00:00+00:00,0.0
2024-12-04 16:00:00+00:00,0.0
2024-12-04 17:00:00+00:00,0.0
2024-12-04 18:00:00+00:00,0.0
2024-12-04 19:00:00+00:00,0.0
2024-12-05 14:00:00+00:00,0.0
2024-12-05 15:00:00+00:00,0.0
2024-12-05 16:00:00+00:00,0.0
2024-12-05 17:00:00+00:00,0.0
2024-12-05 18:00:00+00:00,0.0
2024-12-05 19:00:00+00:00,0.0
2024-12-05 20:00:00+00:00,0.0
2024-12-06 14:00:00+00:00,0.0
2024-12-06 15:00:00+00:00,0.0
2024-12-06 16:00:00+00:00,0.0
2024-12-06 17:00:00+00:00,0.0
2024-12-06 18:00:00+00:00,0.0
2024-12-06 20:00:00+00:00,0.0
2024-12-09 14:00:00+00:00,0.0
2024-12-09 15:00:00+00:00,0.0
2024-12-09 16:00:00+00:00,0.0
2024-12-09 17:00:00+00:00,0.0
2024-12-09 19:00:00+00:00,0.0
2024-12-09 20:00:00+00:00,0.0
2024-12-10 14:00:00+00:00,0.0
2024-12-10 15:00:00+00:00,0.0
2024-12-10 16:00:00+00:00,0.0
2024-12-10 18:00:00+00:00,0.0
2024-12-10 19:00:00+00:00,0.0
2024-12-11 14:00:00+00:00,0.0
2024-12-11 15:00:00+00:00,0.0
2024-12-11 16:00:00+00:00,0.0
2024-12-11 17:00:00+00:00,0.0
2024-12-11 18:00:00+00:00,0.0
2024-12-11 19:00:00+00:00,0.0
2024-12-11 20:00:00+00:00,0.0
2024-12-12 14:00:00+00:00,0.0
2024-12-12 15:00:00+00:00,0.0
2024-12-12 16:00:00+00:00,0.0
2024-12-12 18:00:00+00:00,0.0
2024-12-12 19:00:00+00:00,0.0
2024-12-12 20:00:00+00:00,0.0
2024-12-13 16:00:00+00:00,0.0
2024-12-13 17:00:00+00:00,0.0
2024-12-13 19:00:00+00:00,0.0
2024-12-13 20:00:00+00:00,0.0
2024-12-16 14:00:00+00:00,0.0
2024-12-16 15:00:00+00:00,0.0
2024-12-16 16:00:00+00:00,0.0
2024-12-16 17:00:00+00:00,0.0
2024-12-16 18:00:00+00:00,0.0
2024-12-16 19:00:00+00:00,0.0
2024-12-16 20:00:00+00:00,0.0
2024-12-17 14:00:00+00:00,0.0
2024-12-17 15:00:00+00:00,0.0
2024-12-17 16:00:00+00:00,0.0
2024-12-17 17:00:00+00:00,0.0
2024-12-17 20:00:00+00:00,0.0
2024-12-18 14:00:00+00:00,0.0
2024-12-18 15:00:00+00:00,0.0
2024-12-18 16:00:00+00:00,0.0
2024-12-18 18:00:00+00:00,0.0
2024-12-18 19:00:00+00:00,0.0
2024-12-18 20:00:00+00:00,0.0
2024-12-19 14:00:00+00:00,0.0
2024-12-19 15:00:00+00:00,0.0
2024-12-19 16:00:00+00:00,0.0
2024-12-19 17:00:00+00:00,0.0
2024-12-19 18:00:00+00:00,0.0
2024-12-19 19:00:00+00:00,0.0
2024-12-19 20:00:00+00:00,0.0
2024-12-20 14:00:00+00:00,0.0
2024-12-20 15:00:00+00:00,0.0
2024-12-20 16:00:00+00:00,0.0
2024-12-20 17:00:00+00:00,0.0
2024-12-20 18:00:00+00:00,0.0
2024-12-20 19:00:00+00:00,0.0
2024-12-20 20:00:00+00:00,0.0
2024-12-23 14:00:00+00:00,0.0
2024-12-23 15:00:00+00:00,0.0
2024-12-23 16:00:00+00:00,0.0
2024-12-23 17:00:00+00:00,0.0
2024-12-23 18:00:00+00:00,0.0
2024-12-23 19:00:00+00:00,0.0
2024-12-23 20:00:00+00:00,0.0
2024-12-24 14:00:00+00:00,0.0
2024-12-24 15:00:00+00:00,0.0
2024-12-24 16:00:00+00:00,0.0
2024-12-26 14:00:00+00:00,0.0
2024-12-26 15:00:00+00:00,0.0
2024-12-26 16:00:00+00:00,0.0
2024-12-26 17:00:00+00:00,0.0
2024-12-26 18:00:00+00:00,0.0
2024-12-26 19:00:00+00:00,0.0
2024-12-26 20:00:00+00:00,0.0
2024-12-27 14:00:00+00:00,0.0
2024-12-27 15:00:00+00:00,0.0
2024-12-27 16:00:00+00:00,0.0
2024-12-27 17:00:00+00:00,0.0
2024-12-27 18:00:00+00:00,0.0
2024-12-27 19:00:00+00:00,0.0
2024-12-27 20:00:00+00:00,0.0
2024-12-30 14:00:00+00:00,0.0
2024-12-30 15:00:00+00:00,0.0
2024-12-30 16:00:00+00:00,0.0
2024-12-30 17:00:00+00:00,0.0
2024-12-30 18:00:00+00:00,0.0
2024-12-30 19:00:00+00:00,0.0
2024-12-30 20:00:00+00:00,0.0
2024-12-31 14:00:00+00:00,0.0
2024-12-31 15:00:00+00:00,0.0
2024-12-31 16:00:00+00:00,0.0
2024-12-31 17:00:00+00:00,0.0
2024-12-31 18:00:00+00:00,0.0
2024-12-31 19:00:00+00:00,0.0
2025-01-02 14:00:00+00:00,0.0
2025-01-02 15:00:00+00:00,0.0
2025-01-02 16:00:00+00:00,0.0
2025-01-02 17:00:00+00:00,0.0
2025-01-02 18:00:00+00:00,0.0
2025-01-02 19:00:00+00:00,0.0
2025-01-02 20:00:00+00:00,0.0
2025-01-03 14:00:00+00:00,0.0
2025-01-03 15:00:00+00:00,0.0
2025-01-03 16:00:00+00:00,0.0
2025-01-03 17:00:00+00:00,0.0
2025-01-03 18:00:00+00:00,0.0
2025-01-03 19:00:00+00:00,0.0
2025-01-03 20:00:00+00:00,0.0
2025-01-06 14:00:00+00:00,0.0
2025-01-06 15:00:00+00:00,0.0
2025-01-06 18:00:00+00:00,0.0
2025-01-06 19:00:00+00:00,0.0
2025-01-06 20:00:00+00:00,0.0
2025-01-07 14:00:00+00:00,0.0
2025-01-07 15:00:00+00:00,0.0
2025-01-07 16:00:00+00:00,0.0
2025-01-07 17:00:00+00:00,0.0
2025-01-07 18:00:00+00:00,0.0
2025-01-07 19:00:00+00:00,0.0
2025-01-07 20:00:00+00:00,0.0
2025-01-08 14:00:00+00:00,0.0
2025-01-08 15:00:00+00:00,0.0
2025-01-08 16:00:00+00:00,0.0
2025-01-08 17:00:00+00:00,0.0
2025-01-08 18:00:00+00:00,0.0
2025-01-08 19:00:00+00:00,0.0
2025-01-08 20:00:00+00:00,0.0
2025-01-10 14:00:00+00:00,0.0
2025-01-10 15:00:00+00:00,0.0
2025-01-10 16:00:00+00:00,0.0
2025-01-10 17:00:00+00:00,0.0
2025-01-10 19:00:00+00:00,0.0
2025-01-10 20:00:00+00:00,0.0
2025-01-13 14:00:00+00:00,0.0
2025-01-13 15:00:00+00:00,0.0
2025-01-13 16:00:00+00:00,0.0
2025-01-13 17:00:00+00:00,0.0
2025-01-13 18:00:00+00:00,0.0
2025-01-13 19:00:00+00:00,0.0
2025-01-13 20:00:00+00:00,0.0
2025-01-14 14:00:00+00:00,0.0
2025-01-14 15:00:00+00:00,0.0
2025-01-14 16:00:00+00:00,0.0
2025-01-14 17:00:00+00:00,0.0
2025-01-14 18:00:00+00:00,0.0
2025-01-14 19:00:00+00:00,0.0
2025-01-14 20:00:00+00:00,0.0
2025-01-15 14:00:00+00:00,0.0
2025-01-15 15:00:00+00:00,0.0
2025-01-15 16:00:00+00:00,0.0
2025-01-15 18:00:00+00:00,0.0
2025-01-15 19:00:00+00:00,0.0
2025-01-15 20:00:00+00:00,0.0
2025-01-16 14:00:00+00:00,0.0
2025-01-16 15:00:00+00:00,0.0
2025-01-16 16:00:00+00:00,0.0
2025-01-16 17:00:00+00:00,0.0
2025-01-16 19:00:00+00:00,0.0
2025-01-16 20:00:00+00:00,0.0
2025-01-17 14:00:00+00:00,0.0
2025-01-17 15:00:00+00:00,0.0
2025-01-17 16:00:00+00:00,0.0
2025-01-17 18:00:00+00:00,0.0
2025-01-17 19:00:00+00:00,0.0
2025-01-17 20:00:00+00:00,0.0
2025-01-21 14:00:00+00:00,0.0
2025-01-21 15:00:00+00:00,0.0
2025-01-21 16:00:00+00:00,0.0
2025-01-21 17:00:00+00:00,0.0
2025-01-21 19:00:00+00:00,0.0
2025-01-21 20:00:00+00:00,0.0
2025-01-22 14:00:00+00:00,0.0
2025-01-22 16:00:00+00:00,0.0
2025-01-22 17:00:00+00:00,0.0
2025-01-22 19:00:00+00:00,0.0
2025-01-22 20:00:00+00:00,0.0
2025-01-23 14:00:00+00:00,0.0
2025-01-23 15:00:00+00:00,0.0
2025-01-23 16:00:00+00:00,0.0
2025-01-23 17:00:00+00:00,0.0
2025-01-23 18:00:00+00:00,0.0
2025-01-23 19:00:00+00:00,0.0
2025-01-23 20:00:00+00:00,0.0
2025-01-24 14:00:00+00:00,0.0
2025-01-24 15:00:00+00:00,0.0
2025-01-24 16:00:00+00:00,0.0
2025-01-24 17:00:00+00:00,0.0
2025-01-24 18:00:00+00:00,0.0
2025-01-24 19:00:00+00:00,0.0
2025-01-24 20:00:00+00:00,0.0
2025-01-27 14:00:00+00:00,0.0
2025-01-27 15:00:00+00:00,0.0
2025-01-27 16:00:00+00:00,0.0
2025-01-27 17:00:00+00:00,0.0
2025-01-27 18:00:00+00:00,0.0
2025-01-27 19:00:00+00:00,0.0
2025-01-27 20:00:00+00:00,0.0
2025-01-28 14:00:00+00:00,0.0
2025-01-28 15:00:00+00:00,0.0
2025-01-28 16:00:00+00:00,0.0
2025-01-28 17:00:00+00:00,0.0
2025-01-28 18:00:00+00:00,0.0
2025-01-28 19:00:00+00:00,0.0
2025-01-29 14:00:00+00:00,0.0
2025-01-29 15:00:00+00:00,0.0
2025-01-29 16:00:00+00:00,0.0
2025-01-29 17:00:00+00:00,0.0
2025-01-29 18:00:00+00:00,0.0
2025-01-29 19:00:00+00:00,0.0
2025-01-29 20:00:00+00:00,0.0
2025-01-30 14:00:00+00:00,0.0
2025-01-30 15:00:00+00:00,0.0
2025-01-30 16:00:00+00:00,0.0
2025-01-30 18:00:00+00:00,0.0
2025-01-30 19:00:00+00:00,0.0
2025-01-30 20:00:00+00:00,0.0
2025-01-31 14:00:00+00:00,0.0
2025-01-31 15:00:00+00:00,0.0
2025-01-31 16:00:00+00:00,0.0
2025-01-31 17:00:00+00:00,0.0
2025-01-31 18:00:00+00:00,0.0
2025-01-31 19:00:00+00:00,0.0
2025-01-31 20:00:00+00:00,0.0
2025-02-03 14:00:00+00:00,0.0
2025-02-03 15:00:00+00:00,0.0
2025-02-03 16:00:00+00:00,0.0
2025-02-03 17:00:00+00:00,0.0
2025-02-03 18:00:00+00:00,0.0
2025-02-03 19:00:00+00:00,0.0
2025-02-03 20:00:00+00:00,0.0
2025-02-04 16:00:00+00:00,0.0
2025-02-04 18:00:00+00:00,0.0
2025-02-04 20:00:00+00:00,0.0
2025-02-05 14:00:00+00:00,0.0
2025-02-05 15:00:00+00:00,0.0
2025-02-05 16:00:00+00:00,0.0
2025-02-05 17:00:00+00:00,0.0
2025-02-05 19:00:00+00:00,0.0
2025-02-05 20:00:00+00:00,0.0
2025-02-06 14:00:00+00:00,0.0
2025-02-06 15:00:00+00:00,0.0
2025-02-06 17:00:00+00:00,0.0
2025-02-06 18:00:00+00:00,0.0
2025-02-06 19:00:00+00:00,0.0
2025-02-06 20:00:00+00:00,0.0
2025-02-07 14:00:00+00:00,0.0
2025-02-07 15:00:00+00:00,0.0
2025-02-07 16:00:00+00:00,0.0
2025-02-07 17:00:00+00:00,0.0
2025-02-07 19:00:00+00:00,0.0
2025-02-07 20:00:00+00:00,0.0
2025-02-10 14:00:00+00:00,0.0
2025-02-10 15:00:00+00:00,0.0
2025-02-10 19:00:00+00:00,0.0
2025-02-10 20:00:00+00:00,0.0
2025-02-11 14:00:00+00:00,0.0
2025-02-11 16:00:00+00:00,0.0
2025-02-11 17:00:00+00:00,0.0
2025-02-11 19:00:00+00:00,0.0
2025-02-11 20:00:00+00:00,0.0
2025-02-12 14:00:00+00:00,0.0
2025-02-12 15:00:00+00:00,0.0
2025-02-12 16:00:00+00:00,0.0
2025-02-12 17:00:00+00:00,0.0
2025-02-12 18:00:00+00:00,0.0
2025-02-12 19:00:00+00:00,0.0
2025-02-12 20:00:00+00:00,0.0
2025-02-13 14:00:00+00:00,0.0
2025-02-13 15:00:00+00:00,0.0
2025-02-13 16:00:00+00:00,0.0
2025-02-13 17:00:00+00:00,0.0
2025-02-13 18:00:00+00:00,0.0
2025-02-13 19:00:00+00:00,0.0
2025-02-13 20:00:00+00:00,0.0
2025-02-14 14:00:00+00:00,0.0
2025-02-14 15:00:00+00:00,0.0
2025-02-14 16:00:00+00:00,0.0
2025-02-14 17:00:00+00:00,0.0
2025-02-14 18:00:00+00:00,0.0
2025-02-14 19:00:00+00:00,0.0
2025-02-14 20:00:00+00:00,0.0
2025-02-18 14:00:00+00:00,0.0
2025-02-18 15:00:00+00:00,0.0
2025-02-18 16:00:00+00:00,0.0
2025-02-18 17:00:00+00:00,0.0
2025-02-18 18:00:00+00:00,0.0
2025-02-18 19:00:00+00:00,0.0
2025-02-18 20:00:00+00:00,0.0
2025-02-19 14:00:00+00:00,0.0
2025-02-19 15:00:00+00:00,0.0
2025-02-19 16:00:00+00:00,0.0
2025-02-19 17:00:00+00:00,0.0
2025-02-19 18:00:00+00:00,0.0
2025-02-19 19:00:00+00:00,0.0
2025-02-19 20:00:00+00:00,0.0
2025-02-20 14:00:00+00:00,0.0
2025-02-20 15:00:00+00:00,0.0
2025-02-20 16:00:00+00:00,0.0
2025-02-20 17:00:00+00:00,0.0
2025-02-20 18:00:00+00:00,0.0
2025-02-20 19:00:00+00:00,0.0
2025-02-21 14:00:00+00:00,0.0
2025-02-21 15:00:00+00:00,0.0
2025-02-21 16:00:00+00:00,0.0
2025-02-21 17:00:00+00:00,0.0
2025-02-21 18:00:00+00:00,0.0
2025-02-21 19:00:00+00:00,0.0
2025-02-21 20:00:00+00:00,0.0
2025-02-24 14:00:00+00:00,0.0
2025-02-24 15:00:00+00:00,0.0
2025-02-24 16:00:00+00:00,0.0
2025-02-24 17:00:00+00:00,0.0
2025-02-24 18:00:00+00:00,0.0
2025-02-24 19:00:00+00:00,0.0
2025-02-24 20:00:00+00:00,0.0
2025-02-25 14:00:00+00:00,0.0
2025-02-25 15:00:00+00:00,0.0
2025-02-25 16:00:00+00:00,0.0
2025-02-25 17:00:00+00:00,0.0
2025-02-25 18:00:00+00:00,0.0
2025-02-25 19:00:00+00:00,0.0
2025-02-25 20:00:00+00:00,0.0
2025-02-26 14:00:00+00:00,0.0
2025-02-26 15:00:00+00:00,0.0
2025-02-26 16:00:00+00:00,0.0
2025-02-26 17:00:00+00:00,0.0
2025-02-26 18:00:00+00:00,0.0
2025-02-26 19:00:00+00:00,0.0
2025-02-26 20:00:00+00:00,0.0
2025-02-27 14:00:00+00:00,0.0
2025-02-27 15:00:00+00:00,0.0
2025-02-27 16:00:00+00:00,0.0
2025-02-27 17:00:00+00:00,0.0
2025-02-27 18:00:00+00:00,0.0
2025-02-27 19:00:00+00:00,0.0
2025-02-27 20:00:00+00:00,0.0
2025-02-28 14:00:00+00:00,0.0
2025-02-28 15:00:00+00:00,0.0
2025-02-28 16:00:00+00:00,0.0
2025-02-28 17:00:00+00:00,0.0
2025-02-28 18:00:00+00:00,0.0
2025-02-28 19:00:00+00:00,0.0
2025-02-28 20:00:00+00:00,0.0
2025-03-03 14:00:00+00:00,0.0
2025-03-03 15:00:00+00:00,0.0
2025-03-03 16:00:00+00:00,0.0
2025-03-03 17:00:00+00:00,0.0
2025-03-03 18:00:00+00:00,0.0
2025-03-03 19:00:00+00:00,0.0
2025-03-03 20:00:00+00:00,0.0
2025-03-04 14:00:00+00:00,0.0
2025-03-04 15:00:00+00:00,0.0
2025-03-04 16:00:00+00:00,0.0
2025-03-04 17:00:00+00:00,0.0
2025-03-04 18:00:00+00:00,0.0
2025-03-04 19:00:00+00:00,0.0
2025-03-04 20:00:00+00:00,0.0
2025-03-05 14:00:00+00:00,0.0
2025-03-05 15:00:00+00:00,0.0
2025-03-05 16:00:00+00:00,0.0
2025-03-05 17:00:00+00:00,0.0
2025-03-05 18:00:00+00:00,0.0
2025-03-05 19:00:00+00:00,0.0
2025-03-05 20:00:00+00:00,0.0
2025-03-06 14:00:00+00:00,0.0
2025-03-06 15:00:00+00:00,0.0
2025-03-06 16:00:00+00:00,0.0
2025-03-06 17:00:00+00:00,0.0
2025-03-06 18:00:00+00:00,0.0
2025-03-06 19:00:00+00:00,0.0
2025-03-06 20:00:00+00:00,0.0
2025-03-07 14:00:00+00:00,0.0
2025-03-07 15:00:00+00:00,0.0
2025-03-07 17:00:00+00:00,0.0
2025-03-07 18:00:00+00:00,0.0
2025-03-07 19:00:00+00:00,0.0
2025-03-07 20:00:00+00:00,0.0
2025-03-10 13:00:00+00:00,0.0
2025-03-10 14:00:00+00:00,0.0
2025-03-10 15:00:00+00:00,0.0
2025-03-10 16:00:00+00:00,0.0
2025-03-10 17:00:00+00:00,0.0
2025-03-10 18:00:00+00:00,0.0
2025-03-10 19:00:00+00:00,0.0
2025-03-11 13:00:00+00:00,0.0
2025-03-11 14:00:00+00:00,0.0
2025-03-11 15:00:00+00:00,0.0
2025-03-11 16:00:00+00:00,0.0
2025-03-11 17:00:00+00:00,0.0
2025-03-11 18:00:00+00:00,0.0
2025-03-11 19:00:00+00:00,0.0
2025-03-12 13:00:00+00:00,0.0
2025-03-12 14:00:00+00:00,0.0
2025-03-12 15:00:00+00:00,0.0
2025-03-12 16:00:00+00:00,0.0
2025-03-12 17:00:00+00:00,0.0
2025-03-12 18:00:00+00:00,0.0
2025-03-12 19:00:00+00:00,0.0
2025-03-13 13:00:00+00:00,0.0
2025-03-13 14:00:00+00:00,0.0
2025-03-13 15:00:00+00:00,0.0
2025-03-13 17:00:00+00:00,0.0
2025-03-13 18:00:00+00:00,0.0
2025-03-13 19:00:00+00:00,0.0
2025-03-14 13:00:00+00:00,0.0
2025-03-14 14:00:00+00:00,0.0
2025-03-14 15:00:00+00:00,0.0
2025-03-14 16:00:00+00:00,0.0
2025-03-14 17:00:00+00:00,0.0
2025-03-14 18:00:00+00:00,0.0
2025-03-14 19:00:00+00:00,0.0
2025-03-17 13:00:00+00:00,0.0
2025-03-17 14:00:00+00:00,0.0
2025-03-17 15:00:00+00:00,0.0
2025-03-17 16:00:00+00:00,0.0
2025-03-17 17:00:00+00:00,0.0
2025-03-17 18:00:00+00:00,0.0
2025-03-17 19:00:00+00:00,0.0
2025-03-18 13:00:00+00:00,0.0
2025-03-18 14:00:00+00:00,0.0
2025-03-18 15:00:00+00:00,0.0
2025-03-18 16:00:00+00:00,0.0
2025-03-18 17:00:00+00:00,0.0
2025-03-18 18:00:00+00:00,0.0
2025-03-18 19:00:00+00:00,0.0
2025-03-19 13:00:00+00:00,0.0
2025-03-19 14:00:00+00:00,0.0
2025-03-19 15:00:00+00:00,0.0
2025-03-19 16:00:00+00:00,0.0
2025-03-19 17:00:00+00:00,0.0
2025-03-19 18:00:00+00:00,0.0
2025-03-19 19:00:00+00:00,0.0
2025-03-20 13:00:00+00:00,0.0
2025-03-20 14:00:00+00:00,0.0
2025-03-20 15:00:00+00:00,0.0
2025-03-20 16:00:00+00:00,0.0
2025-03-20 17:00:00+00:00,0.0
2025-03-20 18:00:00+00:00,0.0
2025-03-20 19:00:00+00:00,0.0
2025-03-21 13:00:00+00:00,0.0
2025-03-21 14:00:00+00:00,0.0
2025-03-21 15:00:00+00:00,0.0
2025-03-21 16:00:00+00:00,0.0
2025-03-21 17:00:00+00:00,0.0
2025-03-21 18:00:00+00:00,0.0
2025-03-21 19:00:00+00:00,0.0
2025-03-24 13:00:00+00:00,0.0
2025-03-24 14:00:00+00:00,0.0
2025-03-24 15:00:00+00:00,0.0
2025-03-24 16:00:00+00:00,0.0
2025-03-24 17:00:00+00:00,0.0
2025-03-24 18:00:00+00:00,0.0
2025-03-24 19:00:00+00:00,0.0
2025-03-25 13:00:00+00:00,0.0
2025-03-25 14:00:00+00:00,0.0
2025-03-25 15:00:00+00:00,0.0
2025-03-25 16:00:00+00:00,0.0
2025-03-25 17:00:00+00:00,0.0
2025-03-25 18:00:00+00:00,0.0
2025-03-25 19:00:00+00:00,0.0
2025-03-26 13:00:00+00:00,0.0
2025-03-26 14:00:00+00:00,0.0
2025-03-26 15:00:00+00:00,0.0
2025-03-26 16:00:00+00:00,-31.322618702231274
2025-03-26 17:00:00+00:00,-15.768525487716573
2025-03-26 18:00:00+00:00,0.21266827986795356
2025-03-26 19:00:00+00:00,7.043917389991579
2025-03-27 13:00:00+00:00,-243.99441190562374
2025-03-27 14:00:00+00:00,-228.84097837922025
2025-03-27 15:00:00+00:00,-302.93011050408825
2025-03-27 16:00:00+00:00,-317.58402868317523
2025-03-27 17:00:00+00:00,-300.57104920707945
2025-03-27 18:00:00+00:00,-237.41530725743485
2025-03-27 19:00:00+00:00,-198.86660007305
2025-03-28 13:00:00+00:00,-139.76189940078208
2025-03-28 14:00:00+00:00,-148.84877538060266
2025-03-28 15:00:00+00:00,-153.81944760005538
2025-03-28 16:00:00+00:00,-180.30953264512348
2025-03-28 17:00:00+00:00,-169.92937199988498
2025-03-28 18:00:00+00:00,-154.04433479476936
2025-03-28 19:00:00+00:00,-174.9216631649524
2025-03-31 13:00:00+00:00,-196.86843905623954
2025-03-31 14:00:00+00:00,-170.4643478276223
2025-03-31 15:00:00+00:00,-183.35629678366496
2025-03-31 16:00:00+00:00,-166.60482263428304
2025-03-31 17:00:00+00:00,-143.41598380295534
2025-03-31 18:00:00+00:00,-85.60701559038743
2025-03-31 19:00:00+00:00,-41.83151456811403
2025-04-01 13:00:00+00:00,-88.8463602068072
2025-04-01 14:00:00+00:00,-46.55671642855519
2025-04-01 15:00:00+00:00,-84.69496133518078
2025-04-01 16:00:00+00:00,-100.63198583748536
2025-04-01 17:00:00+00:00,-95.7254259762678
2025-04-01 18:00:00+00:00,-80.93016178429428
2025-04-01 19:00:00+00:00,-61.26572582094647
2025-04-02 13:00:00+00:00,-83.13237043678515
2025-04-02 14:00:00+00:00,-81.55543494437089
2025-04-02 16:00:00+00:00,-79.78032531548408
2025-04-02 17:00:00+00:00,-70.10100791761882
2025-04-02 18:00:00+00:00,-47.70016380169431
2025-04-02 19:00:00+00:00,2.1574110794695116
2025-04-03 13:00:00+00:00,-180.28218563340658
2025-04-03 14:00:00+00:00,-190.00912829989997
2025-04-03 15:00:00+00:00,-115.66817678027724
2025-04-03 16:00:00+00:00,-160.59273157390217
2025-04-03 17:00:00+00:00,-192.6093136539307
2025-04-03 18:00:00+00:00,-206.98229768271062
2025-04-03 19:00:00+00:00,-210.95909577922964
2025-04-04 13:00:00+00:00,-306.46552651273873
2025-04-04 14:00:00+00:00,-267.8582211699641
2025-04-04 15:00:00+00:00,-250.5890881520379
2025-04-04 16:00:00+00:00,-206.39703901600376
2025-04-04 17:00:00+00:00,-222.04956406257642
2025-04-04 18:00:00+00:00,-207.99094314997768
2025-04-04 19:00:00+00:00,-266.29301381848836
2025-04-07 13:00:00+00:00,-440.66694778691675
2025-04-07 14:00:00+00:00,-526.8874027274285
2025-04-07 15:00:00+00:00,-445.53142634910773
2025-04-07 16:00:00+00:00,-418.848772036308
2025-04-07 17:00:00+00:00,-404.81311956433336
2025-04-07 18:00:00+00:00,-416.47614751564373
2025-04-07 19:00:00+00:00,-396.37888047925514
2025-04-08 13:00:00+00:00,-358.291176353622
2025-04-08 14:00:00+00:00,-347.5914132243604
2025-04-08 15:00:00+00:00,-351.6080567597193
2025-04-08 16:00:00+00:00,-420.3908026112228
2025-04-08 17:00:00+00:00,-462.35953796419994
2025-04-08 18:00:00+00:00,-508.96787105446134
2025-04-08 19:00:00+00:00,-504.9483409824857
2025-04-09 13:00:00+00:00,-425.1460538185254
2025-04-09 14:00:00+00:00,-384.4405553135686
2025-04-09 15:00:00+00:00,-385.81918311900995
2025-04-09 16:00:00+00:00,-187.96283967932294
2025-04-09 17:00:00+00:00,-136.55588015543185
2025-04-09 18:00:00+00:00,-136.1362751199466
2025-04-09 19:00:00+00:00,-68.32501024363418
2025-04-10 13:00:00+00:00,-219.2148591579088
2025-04-10 14:00:00+00:00,-270.0562710672135
2025-04-10 15:00:00+00:00,-317.96634830485397
2025-04-10 16:00:00+00:00,-264.3697770528896
2025-04-10 17:00:00+00:00,-179.70914638068425
2025-04-10 18:00:00+00:00,-173.7800617514202
2025-04-10 19:00:00+00:00,-172.97044503146788
2025-04-11 13:00:00+00:00,-211.21700713999732
2025-04-11 14:00:00+00:00,-183.9870851374248
2025-04-11 15:00:00+00:00,-119.83080145770347
2025-04-11 16:00:00+00:00,-111.09688625860755
2025-04-11 17:00:00+00:00,-79.83391649619976
2025-04-11 18:00:00+00:00,-89.06476085748767
2025-04-11 19:00:00+00:00,-95.59582156800691
2025-04-14 13:00:00+00:00,-69.77361447777909
2025-04-14 14:00:00+00:00,-77.77007466730521
2025-04-14 15:00:00+00:00,-67.06456674899516
2025-04-14 16:00:00+00:00,-80.18075222332483
2025-04-14 17:00:00+00:00,-94.33406092196572
2025-04-14 18:00:00+00:00,-57.90837138670301
2025-04-14 19:00:00+00:00,-69.71524690859498
2025-04-15 13:00:00+00:00,-102.90850263743368
2025-04-15 14:00:00+00:00,-86.22551960569459
2025-04-15 15:00:00+00:00,-71.59759056446367
2025-04-15 16:00:00+00:00,-83.61051522783875
2025-04-15 17:00:00+00:00,-86.79897914104467
2025-04-15 18:00:00+00:00,-72.94820959758371
2025-04-15 19:00:00+00:00,-80.69527996673047
2025-04-16 13:00:00+00:00,-106.2282362015596
2025-04-16 14:00:00+00:00,-14.59359809661106
2025-04-16 15:00:00+00:00,-65.7294663560825
2025-04-16 17:00:00+00:00,-99.63816208577232
2025-04-16 18:00:00+00:00,-131.2697312815645
2025-04-16 19:00:00+00:00,-111.25818917921984
2025-04-17 13:00:00+00:00,-28.817265017972687
2025-04-17 14:00:00+00:00,13.889181487364262
2025-04-17 15:00:00+00:00,7.6570190337454616
2025-04-17 16:00:00+00:00,9.794864025552318
2025-04-17 17:00:00+00:00,41.74759625994692
2025-04-17 18:00:00+00:00,6.6308333536373
2025-04-17 19:00:00+00:00,-12.087028020191198
2025-04-21 13:00:00+00:00,-10.729366382872243
2025-04-21 14:00:00+00:00,-43.28081195062821
2025-04-21 15:00:00+00:00,-57.552165039763025
2025-04-21 16:00:00+00:00,-53.24403631828073
2025-04-21 17:00:00+00:00,-47.72053905988642
2025-04-21 18:00:00+00:00,-78.95314047071804
2025-04-21 19:00:00+00:00,-61.98772304063501
2025-04-22 13:00:00+00:00,1.5070709814840058
2025-04-22 14:00:00+00:00,22.020467699847664
2025-04-22 15:00:00+00:00,39.58878936875757
2025-04-22 16:00:00+00:00,-1.7390357009468644
2025-04-22 17:00:00+00:00,15.461687812661996
2025-04-22 18:00:00+00:00,39.91438794428318
2025-04-22 19:00:00+00:00,44.51671687314029
2025-04-23 13:00:00+00:00,137.0215895994966
2025-04-23 14:00:00+00:00,95.65819306028804
2025-04-23 15:00:00+00:00,15.31224505401849
2025-04-23 16:00:00+00:00,29.967971561111735
2025-04-23 17:00:00+00:00,22.328473347922767
2025-04-23 18:00:00+00:00,0.971442090849024
2025-04-23 19:00:00+00:00,12.041113905623607
2025-04-24 13:00:00+00:00,43.993338694775574
2025-04-24 14:00:00+00:00,58.767103222551505
2025-04-24 16:00:00+00:00,66.04747120533638
2025-04-24 17:00:00+00:00,66.06845221413917
2025-04-24 18:00:00+00:00,86.33704983719414
2025-04-24 19:00:00+00:00,80.05108100254208
2025-04-25 13:00:00+00:00,5.338471305988435
2025-04-25 14:00:00+00:00,-12.444274736851355
2025-04-25 15:00:00+00:00,-15.81651664003077
2025-04-25 16:00:00+00:00,-29.30207150559395
2025-04-25 17:00:00+00:00,-14.737038393942976
2025-04-25 18:00:00+00:00,-10.610665517747053
2025-04-25 19:00:00+00:00,-7.91647552557359
2025-04-28 13:00:00+00:00,-43.86619626855908
2025-04-28 14:00:00+00:00,7.87813716651079
2025-04-28 15:00:00+00:00,-2.9620862654018403
2025-04-28 16:00:00+00:00,-40.1361810940508
2025-04-28 17:00:00+00:00,-21.642292196443975
2025-04-28 18:00:00+00:00,-19.598594156505754
2025-04-28 19:00:00+00:00,-9.712553423649792
2025-04-29 13:00:00+00:00,-22.76463290955408
2025-04-29 14:00:00+00:00,15.783654187611837
2025-04-29 15:00:00+00:00,12.95591470278408
2025-04-29 16:00:00+00:00,28.23704002117797
2025-04-29 17:00:00+00:00,29.498789457072267
2025-04-29 19:00:00+00:00,9.326609379620468
2025-04-30 13:00:00+00:00,351.99305413401413
2025-04-30 14:00:00+00:00,313.93154288176186
2025-04-30 15:00:00+00:00,326.892935342032
2025-04-30 16:00:00+00:00,374.01869114025607
2025-04-30 17:00:00+00:00,367.33867513412736
2025-04-30 18:00:00+00:00,351.27709394830345
2025-05-01 13:00:00+00:00,405.1547254561085
2025-05-01 14:00:00+00:00,378.04536181299983
2025-05-01 15:00:00+00:00,396.1645183243418
2025-05-01 16:00:00+00:00,394.3259597532626
2025-05-01 17:00:00+00:00,408.0834436746898
2025-05-01 18:00:00+00:00,412.5626483695124
2025-05-01 19:00:00+00:00,351.8330619949922
2025-05-02 13:00:00+00:00,438.7232860643721
2025-05-02 14:00:00+00:00,413.0336550701965
2025-05-02 15:00:00+00:00,425.3835254331437
2025-05-02 16:00:00+00:00,460.51846703985626
2025-05-02 17:00:00+00:00,468.55752718380586
2025-05-02 18:00:00+00:00,448.40658425795067
2025-05-02 19:00:00+00:00,439.57663967707975
2025-05-05 13:00:00+00:00,522.8618552823089
2025-05-05 14:00:00+00:00,537.6726245764452
2025-05-05 15:00:00+00:00,535.662985191684
2025-05-05 16:00:00+00:00,507.12053515620727
2025-05-05 17:00:00+00:00,525.3200918254049
2025-05-05 18:00:00+00:00,500.6246035082298
2025-05-05 19:00:00+00:00,499.4075937726431
2025-05-06 13:00:00+00:00,476.33912784467117
2025-05-06 14:00:00+00:00,455.38648705944985
2025-05-06 15:00:00+00:00,439.9607363133552
2025-05-06 16:00:00+00:00,403.62521361886775
2025-05-06 17:00:00+00:00,395.65103095065456
2025-05-06 18:00:00+00:00,406.9820760711125
2025-05-06 19:00:00+00:00,403.0056661384168
2025-05-07 13:00:00+00:00,354.91109095118344
2025-05-07 15:00:00+00:00,344.16741224556694
2025-05-07 17:00:00+00:00,290.6001430935317
2025-05-07 18:00:00+00:00,302.0812768087161
2025-05-07 19:00:00+00:00,330.37760886768854
2025-05-08 13:00:00+00:00,393.3627028304866
2025-05-08 14:00:00+00:00,406.81100162723897
2025-05-08 15:00:00+00:00,432.5418694859396
2025-05-08 16:00:00+00:00,458.8122792008709
2025-05-08 17:00:00+00:00,422.90997574324945
2025-05-08 18:00:00+00:00,446.6631291400075
2025-05-08 19:00:00+00:00,406.4048772426317
2025-05-09 13:00:00+00:00,444.91016985174286
2025-05-09 14:00:00+00:00,471.8220100348043
2025-05-09 15:00:00+00:00,476.35984481141
2025-05-09 16:00:00+00:00,470.459145003786
2025-05-09 17:00:00+00:00,449.704554233277
2025-05-09 18:00:00+00:00,432.28481682179745
2025-05-09 19:00:00+00:00,447.5613653558623
2025-05-12 13:00:00+00:00,640.6659355785841
2025-05-12 14:00:00+00:00,666.3002538706512
2025-05-12 15:00:00+00:00,617.1267206221868
2025-05-12 16:00:00+00:00,627.7313818277797
2025-05-12 17:00:00+00:00,646.9890427300958
2025-05-12 18:00:00+00:00,649.1645383243481
2025-05-12 19:00:00+00:00,645.3052708032675
2025-05-13 13:00:00+00:00,619.4088028778685
2025-05-13 14:00:00+00:00,649.2927503011994
2025-05-13 15:00:00+00:00,640.3666555276657
2025-05-13 17:00:00+00:00,612.1452428795646
2025-05-13 18:00:00+00:00,633.6051124343705
2025-05-13 19:00:00+00:00,575.4465902885247
2025-05-14 13:00:00+00:00,499.94336503745456
2025-05-14 14:00:00+00:00,473.36807371373686
2025-05-14 15:00:00+00:00,494.855038120803
2025-05-14 16:00:00+00:00,494.27719345623615
2025-05-14 17:00:00+00:00,478.56844408903794
2025-05-14 18:00:00+00:00,490.21090946332663
2025-05-14 19:00:00+00:00,489.99094772243916
2025-05-15 13:00:00+00:00,532.2958358716609
2025-05-15 14:00:00+00:00,581.2074819993915
2025-05-15 15:00:00+00:00,573.1103055887113
2025-05-15 16:00:00+00:00,579.6257243356939
2025-05-15 17:00:00+00:00,582.1484565605081
2025-05-15 18:00:00+00:00,608.6788799983163
2025-05-15 19:00:00+00:00,613.2992396330842
2025-05-16 13:00:00+00:00,648.2867550331636
2025-05-16 14:00:00+00:00,656.0796956711408
2025-05-16 15:00:00+00:00,651.6062245552207
2025-05-16 16:00:00+00:00,646.512948286594
2025-05-16 17:00:00+00:00,652.3926686148801
2025-05-16 18:00:00+00:00,691.4532706949817
2025-05-16 19:00:00+00:00,682.8537426505363
2025-05-19 13:00:00+00:00,667.0856511907832
2025-05-19 14:00:00+00:00,706.0986927543388
2025-05-19 15:00:00+00:00,727.0293185308432
2025-05-19 16:00:00+00:00,740.4347484907663
2025-05-19 17:00:00+00:00,737.6337156943695
2025-05-19 18:00:00+00:00,730.7332792228124
2025-05-19 19:00:00+00:00,728.3654720330896
2025-05-20 13:00:00+00:00,717.857361923599
2025-05-20 14:00:00+00:00,708.3648817440315
2025-05-20 15:00:00+00:00,691.1004404058219
2025-05-20 16:00:00+00:00,688.128721329378
2025-05-20 17:00:00+00:00,672.5507206758997
2025-05-20 18:00:00+00:00,666.796794869017
2025-05-20 19:00:00+00:00,693.3026426885066
2025-05-21 13:00:00+00:00,632.0064068658855
2025-05-21 14:00:00+00:00,640.0074282435637
2025-05-21 15:00:00+00:00,650.9382066800762
2025-05-21 16:00:00+00:00,599.2303514566989
2025-05-21 17:00:00+00:00,603.559461186985
2025-05-21 18:00:00+00:00,603.8963918403488
2025-05-21 19:00:00+00:00,618.7393437295613
2025-05-22 13:00:00+00:00,595.6273631286757
2025-05-22 14:00:00+00:00,567.131499528523
2025-05-22 16:00:00+00:00,570.1431413306103
2025-05-22 17:00:00+00:00,581.1751625429416
2025-05-22 18:00:00+00:00,601.4379039948004
2025-05-22 19:00:00+00:00,567.0965092131044
2025-05-23 13:00:00+00:00,461.35063000063525
2025-05-23 14:00:00+00:00,475.72922776572324
2025-05-23 15:00:00+00:00,479.82367571910254
2025-05-23 16:00:00+00:00,500.4015968576763
2025-05-23 17:00:00+00:00,502.02660668168687
2025-05-23 18:00:00+00:00,502.4832031723181
2025-05-23 19:00:00+00:00,503.97214007802216
2025-05-27 13:00:00+00:00,604.8424526148174
2025-05-27 14:00:00+00:00,605.0406282807567
2025-05-27 15:00:00+00:00,602.7371832222532
2025-05-27 16:00:00+00:00,614.2928481844828
2025-05-27 17:00:00+00:00,617.9437788230699
2025-05-27 18:00:00+00:00,620.1082048520832
2025-05-27 19:00:00+00:00,610.0866065454392
2025-05-28 13:00:00+00:00,588.0543618629024
2025-05-28 14:00:00+00:00,563.3389982828949
2025-05-28 15:00:00+00:00,567.7913642682505
2025-05-28 16:00:00+00:00,553.4562933545151
2025-05-28 17:00:00+00:00,541.2431677967922
2025-05-28 18:00:00+00:00,534.5991489091311
2025-05-28 19:00:00+00:00,518.8850556563215
2025-05-29 13:00:00+00:00,525.7903158286297
2025-05-29 14:00:00+00:00,542.8942384731524
2025-05-29 15:00:00+00:00,566.6205467906359
2025-05-29 16:00:00+00:00,580.0203767221552
2025-05-29 17:00:00+00:00,571.7359685595477
2025-05-29 18:00:00+00:00,586.562639018944
2025-05-29 19:00:00+00:00,590.2401506947392
2025-05-30 13:00:00+00:00,569.4372103404183
2025-05-30 14:00:00+00:00,550.3021598570875
2025-05-30 15:00:00+00:00,536.0899506647874
2025-05-30 16:00:00+00:00,566.3689465376812
2025-05-30 17:00:00+00:00,580.832229428269
2025-05-30 18:00:00+00:00,594.6867782608512
2025-05-30 19:00:00+00:00,609.3318169967222
2025-06-02 13:00:00+00:00,569.2015145635995
2025-06-02 14:00:00+00:00,565.1503172410676
2025-06-02 15:00:00+00:00,565.1503172410676
2025-06-02 16:00:00+00:00,565.1503172410676
2025-06-02 17:00:00+00:00,565.1503172410676
2025-06-02 18:00:00+00:00,565.1503172410676
2025-06-02 19:00:00+00:00,565.1503172410676
2025-06-03 13:00:00+00:00,565.1503172410676
2025-06-03 14:00:00+00:00,565.1503172410676
2025-06-03 15:00:00+00:00,565.1503172410676
2025-06-03 16:00:00+00:00,565.1503172410676
2025-06-03 17:00:00+00:00,565.1503172410676
2025-06-03 18:00:00+00:00,565.1503172410676
2025-06-03 19:00:00+00:00,565.1503172410676
2025-06-04 13:00:00+00:00,565.1503172410676
2025-06-04 14:00:00+00:00,565.1503172410676
2025-06-04 15:00:00+00:00,565.1503172410676
2025-06-04 16:00:00+00:00,565.1503172410676
2025-06-04 17:00:00+00:00,565.1503172410676
2025-06-04 18:00:00+00:00,565.1503172410676
2025-06-04 19:00:00+00:00,565.1503172410676
2025-06-05 13:00:00+00:00,565.1503172410676
2025-06-05 14:00:00+00:00,565.1503172410676
2025-06-05 15:00:00+00:00,565.1503172410676
2025-06-05 16:00:00+00:00,565.1503172410676
2025-06-05 17:00:00+00:00,565.1503172410676
2025-06-05 18:00:00+00:00,565.1503172410676
2025-06-05 19:00:00+00:00,565.1503172410676
2025-06-06 13:00:00+00:00,565.1503172410676
2025-06-06 14:00:00+00:00,565.1503172410676
2025-06-06 15:00:00+00:00,565.1503172410676
2025-06-06 16:00:00+00:00,565.1503172410676
2025-06-06 17:00:00+00:00,565.1503172410676
2025-06-06 18:00:00+00:00,565.1503172410676
2025-06-06 19:00:00+00:00,565.1503172410676
2025-06-09 13:00:00+00:00,565.1503172410676
2025-06-09 14:00:00+00:00,565.1503172410676
2025-06-09 15:00:00+00:00,565.1503172410676
2025-06-09 16:00:00+00:00,565.1503172410676
2025-06-09 17:00:00+00:00,565.1503172410676
2025-06-09 18:00:00+00:00,565.1503172410676
2025-06-09 19:00:00+00:00,565.1503172410676
2025-06-10 13:00:00+00:00,565.1503172410676
2025-06-10 14:00:00+00:00,565.1503172410676
2025-06-10 15:00:00+00:00,565.1503172410676
2025-06-10 16:00:00+00:00,565.1503172410676
2025-06-10 17:00:00+00:00,565.1503172410676
2025-06-10 18:00:00+00:00,565.1503172410676
2025-06-10 19:00:00+00:00,565.1503172410676
2025-06-11 13:00:00+00:00,565.1503172410676
2025-06-11 14:00:00+00:00,565.1503172410676
2025-06-11 15:00:00+00:00,565.1503172410676
2025-06-11 16:00:00+00:00,565.1503172410676
2025-06-11 18:00:00+00:00,565.1503172410676
2025-06-11 19:00:00+00:00,565.1503172410676
2025-06-12 13:00:00+00:00,565.1503172410676
2025-06-12 14:00:00+00:00,565.1503172410676
2025-06-12 15:00:00+00:00,565.1503172410676
2025-06-12 17:00:00+00:00,565.1503172410676
2025-06-12 18:00:00+00:00,565.1503172410676
2025-06-12 19:00:00+00:00,565.1503172410676
2025-06-13 13:00:00+00:00,565.1503172410676
2025-06-13 14:00:00+00:00,565.1503172410676
2025-06-13 15:00:00+00:00,565.1503172410676
2025-06-13 16:00:00+00:00,565.1503172410676
2025-06-13 17:00:00+00:00,565.1503172410676
2025-06-13 18:00:00+00:00,565.1503172410676
2025-06-13 19:00:00+00:00,565.1503172410676
2025-06-16 13:00:00+00:00,565.1503172410676
2025-06-16 14:00:00+00:00,565.1503172410676
2025-06-16 15:00:00+00:00,565.1503172410676
2025-06-16 16:00:00+00:00,565.1503172410676
2025-06-16 17:00:00+00:00,565.1503172410676
2025-06-16 18:00:00+00:00,565.1503172410676
2025-06-16 19:00:00+00:00,565.1503172410676
2025-06-17 13:00:00+00:00,565.1503172410676
2025-06-17 14:00:00+00:00,565.1503172410676
2025-06-17 15:00:00+00:00,565.1503172410676
2025-06-17 16:00:00+00:00,565.1503172410676
2025-06-17 17:00:00+00:00,565.1503172410676
2025-06-17 18:00:00+00:00,565.1503172410676
2025-06-17 19:00:00+00:00,565.1503172410676
2025-06-18 13:00:00+00:00,565.1503172410676
2025-06-18 15:00:00+00:00,565.1503172410676
2025-06-18 17:00:00+00:00,565.1503172410676
2025-06-18 18:00:00+00:00,565.1503172410676
2025-06-18 19:00:00+00:00,565.1503172410676
2025-06-20 13:00:00+00:00,565.1503172410676
2025-06-20 14:00:00+00:00,565.1503172410676
2025-06-20 15:00:00+00:00,565.1503172410676
2025-06-20 16:00:00+00:00,565.1503172410676
2025-06-20 18:00:00+00:00,565.1503172410676
2025-06-20 19:00:00+00:00,565.1503172410676
2025-06-23 13:00:00+00:00,565.1503172410676
2025-06-23 14:00:00+00:00,565.1503172410676
2025-06-23 16:00:00+00:00,565.1503172410676
2025-06-23 17:00:00+00:00,565.1503172410676
2025-06-23 19:00:00+00:00,565.1503172410676
2025-06-24 13:00:00+00:00,565.1503172410676
2025-06-24 14:00:00+00:00,565.1503172410676
2025-06-25 13:00:00+00:00,565.1503172410676
2025-06-25 14:00:00+00:00,565.1503172410676
2025-06-25 15:00:00+00:00,565.1503172410676
2025-06-25 16:00:00+00:00,565.1503172410676
2025-06-25 17:00:00+00:00,565.1503172410676
2025-06-25 19:00:00+00:00,565.1503172410676
2025-06-26 13:00:00+00:00,565.1503172410676
2025-06-26 14:00:00+00:00,565.1503172410676
2025-06-26 19:00:00+00:00,565.1503172410676
2025-06-27 13:00:00+00:00,565.1503172410676
2025-06-27 14:00:00+00:00,565.1503172410676
2025-06-27 15:00:00+00:00,565.1503172410676
2025-06-27 16:00:00+00:00,565.1503172410676
2025-06-27 17:00:00+00:00,565.1503172410676
2025-06-27 18:00:00+00:00,565.1503172410676
2025-06-27 19:00:00+00:00,565.1503172410676
2025-06-30 13:00:00+00:00,565.1503172410676
2025-06-30 14:00:00+00:00,565.1503172410676
2025-06-30 15:00:00+00:00,565.1503172410676
2025-06-30 16:00:00+00:00,565.1503172410676
2025-06-30 17:00:00+00:00,565.1503172410676
2025-06-30 19:00:00+00:00,565.1503172410676
2025-07-01 13:00:00+00:00,565.1503172410676
2025-07-01 14:00:00+00:00,565.1503172410676
2025-07-01 15:00:00+00:00,565.1503172410676
2025-07-01 16:00:00+00:00,565.1503172410676
2025-07-01 17:00:00+00:00,565.1503172410676
2025-07-01 18:00:00+00:00,565.1503172410676
2025-07-01 19:00:00+00:00,565.1503172410676
2025-07-02 13:00:00+00:00,565.1503172410676
2025-07-02 14:00:00+00:00,565.1503172410676
2025-07-02 15:00:00+00:00,565.1503172410676
2025-07-02 16:00:00+00:00,565.1503172410676
2025-07-02 17:00:00+00:00,565.1503172410676
2025-07-02 18:00:00+00:00,565.1503172410676
2025-07-02 19:00:00+00:00,565.1503172410676
2025-07-03 13:00:00+00:00,565.1503172410676
2025-07-03 14:00:00+00:00,565.1503172410676
2025-07-03 15:00:00+00:00,565.1503172410676
2025-07-07 13:00:00+00:00,565.1503172410676
2025-07-07 14:00:00+00:00,565.1503172410676
2025-07-07 15:00:00+00:00,565.1503172410676
2025-07-07 16:00:00+00:00,565.1503172410676
2025-07-07 17:00:00+00:00,565.1503172410676
2025-07-07 18:00:00+00:00,565.1503172410676
2025-07-07 19:00:00+00:00,565.1503172410676
2025-07-08 13:00:00+00:00,565.1503172410676
2025-07-08 14:00:00+00:00,565.1503172410676
2025-07-08 15:00:00+00:00,565.1503172410676
2025-07-08 16:00:00+00:00,565.1503172410676
2025-07-08 17:00:00+00:00,565.1503172410676
2025-07-08 18:00:00+00:00,565.1503172410676
2025-07-08 19:00:00+00:00,565.1503172410676
2025-07-09 13:00:00+00:00,565.1503172410676
2025-07-09 14:00:00+00:00,565.1503172410676
2025-07-09 15:00:00+00:00,565.1503172410676
2025-07-09 16:00:00+00:00,565.1503172410676
2025-07-09 17:00:00+00:00,565.1503172410676
2025-07-09 18:00:00+00:00,565.1503172410676
2025-07-09 19:00:00+00:00,565.1503172410676
2025-07-10 13:00:00+00:00,565.1503172410676
2025-07-10 14:00:00+00:00,565.1503172410676
2025-07-10 15:00:00+00:00,565.1503172410676
2025-07-10 16:00:00+00:00,565.1503172410676
2025-07-10 17:00:00+00:00,565.1503172410676
2025-07-10 18:00:00+00:00,565.1503172410676
2025-07-10 19:00:00+00:00,565.1503172410676
2025-07-11 13:00:00+00:00,565.1503172410676
2025-07-11 14:00:00+00:00,565.1503172410676
2025-07-11 15:00:00+00:00,565.1503172410676
2025-07-11 16:00:00+00:00,565.1503172410676
2025-07-11 17:00:00+00:00,565.1503172410676
2025-07-11 18:00:00+00:00,565.1503172410676
2025-07-11 19:00:00+00:00,565.1503172410676
2025-07-14 13:00:00+00:00,565.1503172410676
2025-07-14 14:00:00+00:00,565.1503172410676
2025-07-14 15:00:00+00:00,565.1503172410676
2025-07-14 16:00:00+00:00,565.1503172410676
2025-07-14 17:00:00+00:00,565.1503172410676
2025-07-14 19:00:00+00:00,565.1503172410676
2025-07-15 13:00:00+00:00,565.1503172410676
2025-07-15 14:00:00+00:00,565.1503172410676
2025-07-15 15:00:00+00:00,565.1503172410676
2025-07-15 16:00:00+00:00,565.1503172410676
2025-07-15 17:00:00+00:00,565.1503172410676
2025-07-15 19:00:00+00:00,565.1503172410676
2025-07-16 13:00:00+00:00,565.1503172410676
2025-07-16 14:00:00+00:00,565.1503172410676
2025-07-16 15:00:00+00:00,565.1503172410676
2025-07-16 16:00:00+00:00,565.1503172410676
2025-07-16 17:00:00+00:00,565.1503172410676
2025-07-16 19:00:00+00:00,565.1503172410676
2025-07-17 13:00:00+00:00,565.1503172410676
2025-07-17 15:00:00+00:00,565.1503172410676
2025-07-17 16:00:00+00:00,565.1503172410676
2025-07-17 17:00:00+00:00,565.1503172410676
2025-07-18 13:00:00+00:00,565.1503172410676
2025-07-18 17:00:00+00:00,565.1503172410676
2025-07-18 19:00:00+00:00,565.1503172410676
2025-07-21 13:00:00+00:00,565.1503172410676
2025-07-21 14:00:00+00:00,565.1503172410676
2025-07-21 16:00:00+00:00,565.1503172410676
2025-07-21 19:00:00+00:00,565.1503172410676
2025-07-22 13:00:00+00:00,565.1503172410676
2025-07-22 14:00:00+00:00,565.1503172410676
2025-07-22 15:00:00+00:00,565.1503172410676
2025-07-22 18:00:00+00:00,565.1503172410676
2025-07-22 19:00:00+00:00,565.1503172410676
2025-07-23 13:00:00+00:00,565.1503172410676
2025-07-23 14:00:00+00:00,565.1503172410676
2025-07-23 15:00:00+00:00,565.1503172410676
2025-07-23 16:00:00+00:00,565.1503172410676
2025-07-23 17:00:00+00:00,565.1503172410676
2025-07-23 18:00:00+00:00,565.1503172410676
2025-07-23 19:00:00+00:00,565.1503172410676
2025-07-24 13:00:00+00:00,565.1503172410676
2025-07-24 14:00:00+00:00,565.1503172410676
2025-07-24 15:00:00+00:00,565.1503172410676
2025-07-24 16:00:00+00:00,565.1503172410676
2025-07-24 19:00:00+00:00,565.1503172410676
2025-07-25 13:00:00+00:00,565.1503172410676
2025-07-25 14:00:00+00:00,565.1503172410676
2025-07-25 15:00:00+00:00,565.1503172410676
2025-07-25 16:00:00+00:00,565.1503172410676
2025-07-25 17:00:00+00:00,565.1503172410676
2025-07-25 18:00:00+00:00,565.1503172410676
2025-07-28 13:00:00+00:00,565.1503172410676
2025-07-28 14:00:00+00:00,565.1503172410676
2025-07-28 15:00:00+00:00,565.1503172410676
2025-07-28 16:00:00+00:00,565.1503172410676
2025-07-28 17:00:00+00:00,565.1503172410676
2025-07-28 18:00:00+00:00,565.1503172410676
2025-07-28 19:00:00+00:00,565.1503172410676
2025-07-29 13:00:00+00:00,565.1503172410676
2025-07-29 14:00:00+00:00,565.1503172410676
2025-07-29 15:00:00+00:00,565.1503172410676
2025-07-29 16:00:00+00:00,565.1503172410676
2025-07-29 17:00:00+00:00,565.1503172410676
2025-07-29 18:00:00+00:00,565.1503172410676
2025-07-29 19:00:00+00:00,565.1503172410676
2025-07-30 13:00:00+00:00,565.1503172410676
2025-07-30 14:00:00+00:00,565.1503172410676
2025-07-30 15:00:00+00:00,565.1503172410676
2025-07-30 16:00:00+00:00,565.1503172410676
2025-07-30 17:00:00+00:00,565.1503172410676
2025-07-30 18:00:00+00:00,565.1503172410676
2025-07-30 19:00:00+00:00,565.1503172410676
2025-07-31 13:00:00+00:00,565.1503172410676
2025-07-31 16:00:00+00:00,565.1503172410676
2025-07-31 17:00:00+00:00,565.1503172410676
2025-07-31 18:00:00+00:00,565.1503172410676
2025-07-31 19:00:00+00:00,565.1503172410676
2025-08-01 13:00:00+00:00,565.1503172410676
2025-08-01 14:00:00+00:00,565.1503172410676
2025-08-01 15:00:00+00:00,565.1503172410676
2025-08-01 16:00:00+00:00,565.1503172410676
2025-08-01 17:00:00+00:00,565.1503172410676
2025-08-04 13:00:00+00:00,565.1503172410676
2025-08-04 14:00:00+00:00,565.1503172410676
2025-08-04 15:00:00+00:00,565.1503172410676
2025-08-04 17:00:00+00:00,565.1503172410676
2025-08-04 18:00:00+00:00,565.1503172410676
2025-08-04 19:00:00+00:00,565.1503172410676
2025-08-05 13:00:00+00:00,565.1503172410676
2025-08-05 14:00:00+00:00,565.1503172410676
2025-08-05 16:00:00+00:00,565.1503172410676
2025-08-05 17:00:00+00:00,565.1503172410676
2025-08-05 19:00:00+00:00,565.1503172410676
2025-08-06 13:00:00+00:00,565.1503172410676
2025-08-06 15:00:00+00:00,565.1503172410676
2025-08-06 19:00:00+00:00,565.1503172410676
2025-08-07 13:00:00+00:00,565.1503172410676
2025-08-07 14:00:00+00:00,565.1503172410676
2025-08-07 15:00:00+00:00,565.1503172410676
2025-08-07 16:00:00+00:00,565.1503172410676
2025-08-07 17:00:00+00:00,565.1503172410676
2025-08-07 18:00:00+00:00,565.1503172410676
2025-08-07 19:00:00+00:00,565.1503172410676
2025-08-08 13:00:00+00:00,565.1503172410676
2025-08-08 14:00:00+00:00,565.1503172410676
2025-08-08 16:00:00+00:00,565.1503172410676
2025-08-08 17:00:00+00:00,565.1503172410676
2025-08-08 18:00:00+00:00,565.1503172410676
2025-08-08 19:00:00+00:00,565.1503172410676
2025-08-11 13:00:00+00:00,565.1503172410676
2025-08-11 14:00:00+00:00,565.1503172410676
2025-08-11 15:00:00+00:00,565.1503172410676
2025-08-11 18:00:00+00:00,565.1503172410676
2025-08-11 19:00:00+00:00,565.1503172410676
2025-08-12 13:00:00+00:00,565.1503172410676
2025-08-12 14:00:00+00:00,565.1503172410676
2025-08-12 15:00:00+00:00,565.1503172410676
2025-08-12 16:00:00+00:00,565.1503172410676
2025-08-12 17:00:00+00:00,565.1503172410676
2025-08-12 18:00:00+00:00,565.1503172410676
2025-08-13 13:00:00+00:00,565.1503172410676
2025-08-13 14:00:00+00:00,565.1503172410676
2025-08-13 15:00:00+00:00,565.1503172410676
2025-08-13 16:00:00+00:00,565.1503172410676
2025-08-13 18:00:00+00:00,565.1503172410676
2025-08-13 19:00:00+00:00,565.1503172410676
2025-08-14 13:00:00+00:00,565.1503172410676
2025-08-14 14:00:00+00:00,565.1503172410676
2025-08-14 15:00:00+00:00,565.1503172410676
2025-08-14 16:00:00+00:00,565.1503172410676
2025-08-14 18:00:00+00:00,565.1503172410676
2025-08-15 13:00:00+00:00,565.1503172410676
2025-08-15 14:00:00+00:00,565.1503172410676
2025-08-15 16:00:00+00:00,565.1503172410676
2025-08-15 17:00:00+00:00,565.1503172410676
2025-08-15 18:00:00+00:00,565.1503172410676
2025-08-18 13:00:00+00:00,565.1503172410676
2025-08-18 14:00:00+00:00,565.1503172410676
2025-08-18 15:00:00+00:00,565.1503172410676
2025-08-18 16:00:00+00:00,565.1503172410676
2025-08-18 18:00:00+00:00,565.1503172410676
2025-08-18 19:00:00+00:00,565.1503172410676
2025-08-19 13:00:00+00:00,565.1503172410676
2025-08-19 14:00:00+00:00,565.1503172410676
2025-08-19 15:00:00+00:00,565.1503172410676
2025-08-19 17:00:00+00:00,565.1503172410676
2025-08-19 18:00:00+00:00,565.1503172410676
2025-08-19 19:00:00+00:00,565.1503172410676
2025-08-20 13:00:00+00:00,565.1503172410676
2025-08-20 15:00:00+00:00,565.1503172410676
2025-08-20 16:00:00+00:00,565.1503172410676
2025-08-20 17:00:00+00:00,565.1503172410676
2025-08-21 13:00:00+00:00,565.1503172410676
2025-08-21 14:00:00+00:00,565.1503172410676
2025-08-21 18:00:00+00:00,565.1503172410676
2025-08-21 19:00:00+00:00,565.1503172410676
2025-08-22 13:00:00+00:00,565.1503172410676
2025-08-22 14:00:00+00:00,565.1503172410676
2025-08-22 15:00:00+00:00,565.1503172410676
2025-08-22 16:00:00+00:00,565.1503172410676
2025-08-22 18:00:00+00:00,565.1503172410676
2025-08-22 19:00:00+00:00,565.1503172410676
2025-08-25 13:00:00+00:00,565.1503172410676
2025-08-25 14:00:00+00:00,565.1503172410676
2025-08-25 15:00:00+00:00,565.1503172410676
2025-08-25 17:00:00+00:00,565.1503172410676
2025-08-26 13:00:00+00:00,565.1503172410676
2025-08-26 14:00:00+00:00,565.1503172410676
2025-08-26 18:00:00+00:00,565.1503172410676
2025-08-26 19:00:00+00:00,565.1503172410676
2025-08-27 13:00:00+00:00,565.1503172410676
2025-08-27 14:00:00+00:00,565.1503172410676
2025-08-27 15:00:00+00:00,565.1503172410676
2025-08-27 16:00:00+00:00,565.1503172410676
2025-08-27 17:00:00+00:00,565.1503172410676
2025-08-27 18:00:00+00:00,565.1503172410676
2025-08-27 19:00:00+00:00,565.1503172410676
2025-08-28 14:00:00+00:00,565.1503172410676
2025-08-28 18:00:00+00:00,565.1503172410676
2025-08-28 19:00:00+00:00,565.1503172410676
2025-08-29 15:00:00+00:00,565.1503172410676
2025-08-29 16:00:00+00:00,565.1503172410676
2025-08-29 19:00:00+00:00,565.1503172410676
2025-09-02 13:00:00+00:00,565.1503172410676
2025-09-02 14:00:00+00:00,565.1503172410676
2025-09-02 15:00:00+00:00,565.1503172410676
2025-09-02 18:00:00+00:00,565.1503172410676
2025-09-02 19:00:00+00:00,565.1503172410676
2025-09-03 13:00:00+00:00,565.1503172410676
2025-09-03 15:00:00+00:00,565.1503172410676
2025-09-03 16:00:00+00:00,565.1503172410676
2025-09-03 17:00:00+00:00,565.1503172410676
2025-09-04 13:00:00+00:00,565.1503172410676
2025-09-04 14:00:00+00:00,565.1503172410676
2025-09-04 18:00:00+00:00,565.1503172410676
2025-09-05 13:00:00+00:00,565.1503172410676
2025-09-05 14:00:00+00:00,565.1503172410676
2025-09-05 15:00:00+00:00,565.1503172410676
2025-09-05 16:00:00+00:00,565.1503172410676
2025-09-05 17:00:00+00:00,565.1503172410676
2025-09-05 18:00:00+00:00,565.1503172410676
2025-09-08 13:00:00+00:00,565.1503172410676
2025-09-08 14:00:00+00:00,565.1503172410676
2025-09-08 15:00:00+00:00,565.1503172410676
2025-09-08 18:00:00+00:00,565.1503172410676
2025-09-08 19:00:00+00:00,565.1503172410676
2025-09-09 13:00:00+00:00,565.1503172410676
2025-09-09 14:00:00+00:00,565.1503172410676
2025-09-09 15:00:00+00:00,565.1503172410676
2025-09-09 17:00:00+00:00,565.1503172410676
2025-09-09 18:00:00+00:00,565.1503172410676
2025-09-09 19:00:00+00:00,565.1503172410676
2025-09-10 13:00:00+00:00,565.1503172410676
2025-09-10 14:00:00+00:00,565.1503172410676
2025-09-10 15:00:00+00:00,565.1503172410676
2025-09-10 17:00:00+00:00,565.1503172410676
2025-09-11 13:00:00+00:00,565.1503172410676
2025-09-11 14:00:00+00:00,565.1503172410676
2025-09-11 18:00:00+00:00,565.1503172410676
2025-09-11 19:00:00+00:00,565.1503172410676
2025-09-12 13:00:00+00:00,565.1503172410676
2025-09-12 14:00:00+00:00,565.1503172410676
2025-09-12 15:00:00+00:00,565.1503172410676
2025-09-12 16:00:00+00:00,565.1503172410676
2025-09-12 17:00:00+00:00,565.1503172410676
2025-09-12 18:00:00+00:00,565.1503172410676
2025-09-12 19:00:00+00:00,565.1503172410676
2025-09-15 13:00:00+00:00,565.1503172410676
2025-09-15 14:00:00+00:00,565.1503172410676
2025-09-15 17:00:00+00:00,565.1503172410676
2025-09-15 18:00:00+00:00,565.1503172410676
2025-09-15 19:00:00+00:00,565.1503172410676
2025-09-16 13:00:00+00:00,565.1503172410676
2025-09-16 18:00:00+00:00,565.1503172410676
2025-09-17 13:00:00+00:00,565.1503172410676
2025-09-17 16:00:00+00:00,565.1503172410676
2025-09-17 17:00:00+00:00,565.1503172410676
2025-09-17 18:00:00+00:00,565.1503172410676
2025-09-17 19:00:00+00:00,565.1503172410676
2025-09-18 13:00:00+00:00,565.1503172410676
2025-09-18 14:00:00+00:00,565.1503172410676
2025-09-18 16:00:00+00:00,565.1503172410676
2025-09-18 18:00:00+00:00,565.1503172410676
2025-09-19 13:00:00+00:00,565.1503172410676
2025-09-19 15:00:00+00:00,565.1503172410676
2025-09-19 17:00:00+00:00,565.1503172410676
2025-09-19 19:00:00+00:00,565.1503172410676
2025-09-22 13:00:00+00:00,565.1503172410676
2025-09-22 14:00:00+00:00,565.1503172410676
2025-09-22 15:00:00+00:00,565.1503172410676
2025-09-22 18:00:00+00:00,565.1503172410676
2025-09-22 19:00:00+00:00,565.1503172410676
2025-09-23 13:00:00+00:00,565.1503172410676
2025-09-23 14:00:00+00:00,565.1503172410676
2025-09-23 15:00:00+00:00,565.1503172410676
2025-09-23 19:00:00+00:00,565.1503172410676
2025-09-24 15:00:00+00:00,565.1503172410676
2025-09-24 17:00:00+00:00,565.1503172410676
2025-09-24 18:00:00+00:00,565.1503172410676
2025-09-24 19:00:00+00:00,565.1503172410676
2025-09-25 13:00:00+00:00,565.1503172410676
2025-09-25 15:00:00+00:00,565.1503172410676
2025-09-25 17:00:00+00:00,565.1503172410676
2025-09-25 18:00:00+00:00,565.1503172410676
2025-09-26 13:00:00+00:00,565.1503172410676
2025-09-26 14:00:00+00:00,565.1503172410676
2025-09-26 17:00:00+00:00,565.1503172410676
2025-09-26 18:00:00+00:00,565.1503172410676
2025-09-26 19:00:00+00:00,565.1503172410676
2025-09-29 13:00:00+00:00,565.1503172410676
2025-09-29 14:00:00+00:00,565.1503172410676
2025-09-29 16:00:00+00:00,565.1503172410676
2025-09-29 17:00:00+00:00,565.1503172410676
2025-09-29 18:00:00+00:00,565.1503172410676
2025-09-29 19:00:00+00:00,565.1503172410676
2025-09-30 13:00:00+00:00,565.1503172410676
2025-09-30 14:00:00+00:00,565.1503172410676
2025-09-30 15:00:00+00:00,565.1503172410676
2025-09-30 16:00:00+00:00,565.1503172410676
2025-09-30 18:00:00+00:00,565.1503172410676
2025-09-30 19:00:00+00:00,565.1503172410676
2025-10-01 13:00:00+00:00,565.1503172410676
2025-10-01 14:00:00+00:00,565.1503172410676
2025-10-01 16:00:00+00:00,565.1503172410676
2025-10-01 19:00:00+00:00,565.1503172410676
2025-10-02 13:00:00+00:00,565.1503172410676
2025-10-02 14:00:00+00:00,565.1503172410676
2025-10-02 15:00:00+00:00,565.1503172410676
2025-10-02 16:00:00+00:00,565.1503172410676
2025-10-02 17:00:00+00:00,565.1503172410676
2025-10-02 18:00:00+00:00,565.1503172410676
2025-10-02 19:00:00+00:00,565.1503172410676
2025-10-03 13:00:00+00:00,565.1503172410676
2025-10-03 14:00:00+00:00,565.1503172410676
2025-10-03 15:00:00+00:00,565.1503172410676
2025-10-03 16:00:00+00:00,565.1503172410676
2025-10-03 17:00:00+00:00,565.1503172410676
2025-10-03 19:00:00+00:00,565.1503172410676
2025-10-06 13:00:00+00:00,565.1503172410676
2025-10-06 14:00:00+00:00,565.1503172410676
2025-10-06 15:00:00+00:00,565.1503172410676
2025-10-06 16:00:00+00:00,565.1503172410676
2025-10-06 17:00:00+00:00,565.1503172410676
2025-10-06 18:00:00+00:00,565.1503172410676
2025-10-06 19:00:00+00:00,565.1503172410676
2025-10-07 13:00:00+00:00,565.1503172410676
2025-10-07 14:00:00+00:00,565.1503172410676
2025-10-07 15:00:00+00:00,565.1503172410676
2025-10-07 16:00:00+00:00,565.1503172410676
2025-10-07 17:00:00+00:00,565.1503172410676
2025-10-07 18:00:00+00:00,565.1503172410676
2025-10-07 19:00:00+00:00,565.1503172410676
2025-10-08 13:00:00+00:00,565.1503172410676
2025-10-08 14:00:00+00:00,565.1503172410676
2025-10-08 15:00:00+00:00,565.1503172410676
2025-10-08 18:00:00+00:00,565.1503172410676
2025-10-08 19:00:00+00:00,565.1503172410676
2025-10-09 13:00:00+00:00,565.1503172410676
2025-10-09 14:00:00+00:00,565.1503172410676
2025-10-09 15:00:00+00:00,565.1503172410676
2025-10-09 18:00:00+00:00,565.1503172410676
2025-10-10 13:00:00+00:00,565.1503172410676
2025-10-10 14:00:00+00:00,565.1503172410676
2025-10-10 15:00:00+00:00,565.1503172410676
2025-10-10 16:00:00+00:00,565.1503172410676
2025-10-10 18:00:00+00:00,565.1503172410676
2025-10-13 13:00:00+00:00,565.1503172410676
2025-10-13 14:00:00+00:00,565.1503172410676
2025-10-13 15:00:00+00:00,565.1503172410676
2025-10-13 16:00:00+00:00,565.1503172410676
2025-10-13 18:00:00+00:00,565.1503172410676
2025-10-13 19:00:00+00:00,565.1503172410676
2025-10-14 13:00:00+00:00,565.1503172410676
2025-10-14 14:00:00+00:00,565.1503172410676
2025-10-14 16:00:00+00:00,565.1503172410676
2025-10-14 17:00:00+00:00,565.1503172410676
2025-10-14 18:00:00+00:00,565.1503172410676
2025-10-14 19:00:00+00:00,565.1503172410676
2025-10-15 13:00:00+00:00,565.1503172410676
2025-10-15 14:00:00+00:00,565.1503172410676
2025-10-15 15:00:00+00:00,565.1503172410676
2025-10-15 18:00:00+00:00,565.1503172410676
2025-10-15 19:00:00+00:00,565.1503172410676
2025-10-16 13:00:00+00:00,565.1503172410676
2025-10-16 14:00:00+00:00,565.1503172410676
2025-10-16 15:00:00+00:00,565.1503172410676
2025-10-16 16:00:00+00:00,565.1503172410676
2025-10-16 17:00:00+00:00,565.1503172410676
2025-10-16 18:00:00+00:00,565.1503172410676
2025-10-16 19:00:00+00:00,565.1503172410676
2025-10-17 13:00:00+00:00,565.1503172410676
2025-10-17 14:00:00+00:00,565.1503172410676
2025-10-17 15:00:00+00:00,565.1503172410676
2025-10-17 17:00:00+00:00,565.1503172410676
2025-10-17 18:00:00+00:00,565.1503172410676
2025-10-20 13:00:00+00:00,565.1503172410676
2025-10-20 14:00:00+00:00,565.1503172410676
2025-10-20 17:00:00+00:00,565.1503172410676
2025-10-20 18:00:00+00:00,565.1503172410676
2025-10-21 13:00:00+00:00,565.1503172410676
2025-10-21 14:00:00+00:00,565.1503172410676
2025-10-21 16:00:00+00:00,565.1503172410676
2025-10-21 17:00:00+00:00,565.1503172410676
2025-10-21 18:00:00+00:00,565.1503172410676
2025-10-21 19:00:00+00:00,565.1503172410676
2025-10-22 13:00:00+00:00,565.1503172410676
2025-10-22 14:00:00+00:00,565.1503172410676
2025-10-22 16:00:00+00:00,565.1503172410676
2025-10-22 17:00:00+00:00,565.1503172410676
2025-10-22 18:00:00+00:00,565.1503172410676
2025-10-22 19:00:00+00:00,565.1503172410676
