Date,0
2024-01-02 14:00:00+00:00,0.0
2024-01-02 15:00:00+00:00,0.0
2024-01-02 16:00:00+00:00,0.0
2024-01-02 17:00:00+00:00,0.0
2024-01-02 18:00:00+00:00,0.0
2024-01-02 19:00:00+00:00,0.0
2024-01-02 20:00:00+00:00,0.0
2024-01-03 14:00:00+00:00,0.0
2024-01-03 15:00:00+00:00,0.0
2024-01-03 16:00:00+00:00,0.0
2024-01-03 17:00:00+00:00,0.0
2024-01-03 18:00:00+00:00,0.0
2024-01-03 19:00:00+00:00,0.0
2024-01-03 20:00:00+00:00,0.0
2024-01-04 14:00:00+00:00,0.0
2024-01-04 15:00:00+00:00,0.0
2024-01-04 16:00:00+00:00,0.0
2024-01-04 17:00:00+00:00,0.0
2024-01-04 18:00:00+00:00,0.0
2024-01-04 19:00:00+00:00,0.0
2024-01-04 20:00:00+00:00,0.0
2024-01-05 14:00:00+00:00,0.0
2024-01-05 15:00:00+00:00,0.0
2024-01-05 16:00:00+00:00,0.0
2024-01-05 17:00:00+00:00,0.0
2024-01-05 18:00:00+00:00,0.0
2024-01-05 19:00:00+00:00,0.0
2024-01-05 20:00:00+00:00,0.0
2024-01-08 14:00:00+00:00,0.0
2024-01-08 15:00:00+00:00,0.0
2024-01-08 16:00:00+00:00,0.0
2024-01-08 17:00:00+00:00,0.0
2024-01-08 18:00:00+00:00,0.0
2024-01-08 19:00:00+00:00,0.0
2024-01-08 20:00:00+00:00,0.0
2024-01-09 14:00:00+00:00,0.0
2024-01-09 15:00:00+00:00,0.0
2024-01-09 16:00:00+00:00,0.0
2024-01-09 17:00:00+00:00,0.0
2024-01-09 18:00:00+00:00,0.0
2024-01-09 19:00:00+00:00,0.0
2024-01-09 20:00:00+00:00,0.0
2024-01-10 14:00:00+00:00,0.0
2024-01-10 15:00:00+00:00,0.0
2024-01-10 16:00:00+00:00,0.0
2024-01-10 17:00:00+00:00,0.0
2024-01-10 18:00:00+00:00,0.0
2024-01-10 19:00:00+00:00,0.0
2024-01-10 20:00:00+00:00,0.0
2024-01-11 14:00:00+00:00,0.0
2024-01-11 15:00:00+00:00,0.0
2024-01-11 16:00:00+00:00,0.0
2024-01-11 17:00:00+00:00,0.0
2024-01-11 18:00:00+00:00,0.0
2024-01-11 19:00:00+00:00,0.0
2024-01-11 20:00:00+00:00,0.0
2024-01-12 14:00:00+00:00,0.0
2024-01-12 15:00:00+00:00,0.0
2024-01-12 16:00:00+00:00,0.0
2024-01-12 17:00:00+00:00,0.0
2024-01-12 18:00:00+00:00,0.0
2024-01-12 19:00:00+00:00,0.0
2024-01-12 20:00:00+00:00,0.0
2024-01-16 14:00:00+00:00,0.0
2024-01-16 15:00:00+00:00,0.0
2024-01-16 16:00:00+00:00,0.0
2024-01-16 17:00:00+00:00,0.0
2024-01-16 18:00:00+00:00,0.0
2024-01-16 19:00:00+00:00,0.0
2024-01-16 20:00:00+00:00,0.0
2024-01-17 14:00:00+00:00,0.0
2024-01-17 15:00:00+00:00,0.0
2024-01-17 16:00:00+00:00,0.0
2024-01-17 17:00:00+00:00,0.0
2024-01-17 18:00:00+00:00,0.0
2024-01-17 19:00:00+00:00,0.0
2024-01-17 20:00:00+00:00,0.0
2024-01-18 14:00:00+00:00,0.0
2024-01-18 15:00:00+00:00,0.0
2024-01-18 16:00:00+00:00,0.0
2024-01-18 17:00:00+00:00,0.0
2024-01-18 18:00:00+00:00,0.0
2024-01-18 19:00:00+00:00,0.0
2024-01-18 20:00:00+00:00,0.0
2024-01-19 14:00:00+00:00,0.0
2024-01-19 15:00:00+00:00,0.0
2024-01-19 16:00:00+00:00,0.0
2024-01-19 17:00:00+00:00,0.0
2024-01-19 18:00:00+00:00,0.0
2024-01-19 19:00:00+00:00,0.0
2024-01-19 20:00:00+00:00,0.0
2024-01-22 14:00:00+00:00,0.0
2024-01-22 15:00:00+00:00,0.0
2024-01-22 16:00:00+00:00,0.0
2024-01-22 17:00:00+00:00,0.0
2024-01-22 18:00:00+00:00,0.0
2024-01-22 19:00:00+00:00,0.0
2024-01-22 20:00:00+00:00,0.0
2024-01-23 14:00:00+00:00,0.0
2024-01-23 15:00:00+00:00,0.0
2024-01-23 16:00:00+00:00,0.0
2024-01-23 17:00:00+00:00,0.0
2024-01-23 18:00:00+00:00,0.0
2024-01-23 19:00:00+00:00,0.0
2024-01-23 20:00:00+00:00,0.0
2024-01-24 14:00:00+00:00,0.0
2024-01-24 15:00:00+00:00,0.0
2024-01-24 16:00:00+00:00,0.0
2024-01-24 17:00:00+00:00,0.0
2024-01-24 18:00:00+00:00,0.0
2024-01-24 19:00:00+00:00,0.0
2024-01-24 20:00:00+00:00,0.0
2024-01-25 14:00:00+00:00,0.0
2024-01-25 15:00:00+00:00,0.0
2024-01-25 16:00:00+00:00,0.0
2024-01-25 17:00:00+00:00,0.0
2024-01-25 18:00:00+00:00,0.0
2024-01-25 19:00:00+00:00,0.0
2024-01-25 20:00:00+00:00,0.0
2024-01-26 14:00:00+00:00,0.0
2024-01-26 15:00:00+00:00,0.0
2024-01-26 16:00:00+00:00,0.0
2024-01-26 17:00:00+00:00,0.0
2024-01-26 18:00:00+00:00,0.0
2024-01-26 19:00:00+00:00,0.0
2024-01-26 20:00:00+00:00,0.0
2024-01-29 14:00:00+00:00,0.0
2024-01-29 15:00:00+00:00,0.0
2024-01-29 16:00:00+00:00,0.0
2024-01-29 17:00:00+00:00,0.0
2024-01-29 18:00:00+00:00,0.0
2024-01-29 19:00:00+00:00,0.0
2024-01-29 20:00:00+00:00,0.0
2024-01-30 14:00:00+00:00,0.0
2024-01-30 15:00:00+00:00,0.0
2024-01-30 16:00:00+00:00,0.0
2024-01-30 17:00:00+00:00,0.0
2024-01-30 18:00:00+00:00,0.0
2024-01-30 19:00:00+00:00,0.0
2024-01-30 20:00:00+00:00,0.0
2024-01-31 14:00:00+00:00,0.0
2024-01-31 15:00:00+00:00,0.0
2024-01-31 16:00:00+00:00,0.0
2024-01-31 17:00:00+00:00,0.0
2024-01-31 18:00:00+00:00,0.0
2024-01-31 19:00:00+00:00,0.0
2024-01-31 20:00:00+00:00,0.0
2024-02-01 14:00:00+00:00,0.0
2024-02-01 15:00:00+00:00,0.0
2024-02-01 16:00:00+00:00,0.0
2024-02-01 17:00:00+00:00,0.0
2024-02-01 18:00:00+00:00,0.0
2024-02-01 19:00:00+00:00,0.0
2024-02-01 20:00:00+00:00,0.0
2024-02-02 14:00:00+00:00,0.0
2024-02-02 15:00:00+00:00,0.0
2024-02-02 16:00:00+00:00,0.0
2024-02-02 17:00:00+00:00,0.0
2024-02-02 18:00:00+00:00,0.0
2024-02-02 19:00:00+00:00,0.0
2024-02-02 20:00:00+00:00,0.0
2024-02-05 14:00:00+00:00,0.0
2024-02-05 15:00:00+00:00,0.0
2024-02-05 16:00:00+00:00,0.0
2024-02-05 17:00:00+00:00,0.0
2024-02-05 18:00:00+00:00,0.0
2024-02-05 19:00:00+00:00,0.0
2024-02-05 20:00:00+00:00,0.0
2024-02-06 14:00:00+00:00,0.0
2024-02-06 15:00:00+00:00,0.0
2024-02-06 16:00:00+00:00,0.0
2024-02-06 17:00:00+00:00,0.0
2024-02-06 18:00:00+00:00,0.0
2024-02-06 19:00:00+00:00,0.0
2024-02-06 20:00:00+00:00,0.0
2024-02-07 14:00:00+00:00,0.0
2024-02-07 15:00:00+00:00,0.0
2024-02-07 16:00:00+00:00,0.0
2024-02-07 17:00:00+00:00,0.0
2024-02-07 18:00:00+00:00,0.0
2024-02-07 19:00:00+00:00,0.0
2024-02-07 20:00:00+00:00,0.0
2024-02-08 14:00:00+00:00,0.0
2024-02-08 15:00:00+00:00,0.0
2024-02-08 16:00:00+00:00,0.0
2024-02-08 17:00:00+00:00,0.0
2024-02-08 18:00:00+00:00,0.0
2024-02-08 19:00:00+00:00,0.0
2024-02-08 20:00:00+00:00,0.0
2024-02-09 14:00:00+00:00,0.0
2024-02-09 15:00:00+00:00,0.0
2024-02-09 16:00:00+00:00,0.0
2024-02-09 17:00:00+00:00,0.0
2024-02-09 18:00:00+00:00,0.0
2024-02-09 19:00:00+00:00,0.0
2024-02-09 20:00:00+00:00,0.0
2024-02-12 14:00:00+00:00,0.0
2024-02-12 15:00:00+00:00,0.0
2024-02-12 16:00:00+00:00,0.0
2024-02-12 17:00:00+00:00,0.0
2024-02-12 18:00:00+00:00,0.0
2024-02-12 19:00:00+00:00,0.0
2024-02-12 20:00:00+00:00,0.0
2024-02-13 14:00:00+00:00,0.0
2024-02-13 15:00:00+00:00,0.0
2024-02-13 16:00:00+00:00,0.0
2024-02-13 17:00:00+00:00,0.0
2024-02-13 18:00:00+00:00,0.0
2024-02-13 19:00:00+00:00,0.0
2024-02-13 20:00:00+00:00,0.0
2024-02-14 14:00:00+00:00,0.0
2024-02-14 15:00:00+00:00,0.0
2024-02-14 16:00:00+00:00,0.0
2024-02-14 17:00:00+00:00,0.0
2024-02-14 18:00:00+00:00,0.0
2024-02-14 19:00:00+00:00,0.0
2024-02-14 20:00:00+00:00,0.0
2024-02-15 14:00:00+00:00,0.0
2024-02-15 15:00:00+00:00,0.0
2024-02-15 16:00:00+00:00,0.0
2024-02-15 17:00:00+00:00,0.0
2024-02-15 18:00:00+00:00,0.0
2024-02-15 19:00:00+00:00,0.0
2024-02-15 20:00:00+00:00,0.0
2024-02-16 14:00:00+00:00,0.0
2024-02-16 15:00:00+00:00,0.0
2024-02-16 16:00:00+00:00,0.0
2024-02-16 17:00:00+00:00,0.0
2024-02-16 18:00:00+00:00,0.0
2024-02-16 19:00:00+00:00,0.0
2024-02-16 20:00:00+00:00,0.0
2024-02-20 14:00:00+00:00,0.0
2024-02-20 15:00:00+00:00,0.0
2024-02-20 16:00:00+00:00,0.0
2024-02-20 17:00:00+00:00,0.0
2024-02-20 18:00:00+00:00,0.0
2024-02-20 19:00:00+00:00,0.0
2024-02-20 20:00:00+00:00,0.0
2024-02-21 14:00:00+00:00,0.0
2024-02-21 15:00:00+00:00,0.0
2024-02-21 16:00:00+00:00,0.0
2024-02-21 17:00:00+00:00,0.0
2024-02-21 18:00:00+00:00,0.0
2024-02-21 19:00:00+00:00,0.0
2024-02-21 20:00:00+00:00,0.0
2024-02-22 14:00:00+00:00,0.0
2024-02-22 15:00:00+00:00,0.0
2024-02-22 16:00:00+00:00,0.0
2024-02-22 17:00:00+00:00,0.0
2024-02-22 18:00:00+00:00,0.0
2024-02-22 19:00:00+00:00,0.0
2024-02-22 20:00:00+00:00,0.0
2024-02-23 14:00:00+00:00,0.0
2024-02-23 15:00:00+00:00,0.0
2024-02-23 16:00:00+00:00,0.0
2024-02-23 17:00:00+00:00,0.0
2024-02-23 18:00:00+00:00,0.0
2024-02-23 19:00:00+00:00,0.0
2024-02-23 20:00:00+00:00,0.0
2024-02-26 14:00:00+00:00,0.0
2024-02-26 15:00:00+00:00,0.0
2024-02-26 16:00:00+00:00,0.0
2024-02-26 17:00:00+00:00,0.0
2024-02-26 18:00:00+00:00,0.0
2024-02-26 19:00:00+00:00,0.0
2024-02-26 20:00:00+00:00,0.0
2024-02-27 14:00:00+00:00,0.0
2024-02-27 15:00:00+00:00,0.0
2024-02-27 16:00:00+00:00,0.0
2024-02-27 17:00:00+00:00,0.0
2024-02-27 18:00:00+00:00,0.0
2024-02-27 19:00:00+00:00,0.0
2024-02-27 20:00:00+00:00,0.0
2024-02-28 14:00:00+00:00,0.0
2024-02-28 15:00:00+00:00,0.0
2024-02-28 16:00:00+00:00,0.0
2024-02-28 17:00:00+00:00,0.0
2024-02-28 18:00:00+00:00,0.0
2024-02-28 19:00:00+00:00,0.0
2024-02-28 20:00:00+00:00,0.0
2024-02-29 14:00:00+00:00,0.0
2024-02-29 15:00:00+00:00,0.0
2024-02-29 16:00:00+00:00,0.0
2024-02-29 17:00:00+00:00,0.0
2024-02-29 18:00:00+00:00,0.0
2024-02-29 19:00:00+00:00,0.0
2024-02-29 20:00:00+00:00,0.0
2024-03-01 14:00:00+00:00,0.0
2024-03-01 15:00:00+00:00,0.0
2024-03-01 16:00:00+00:00,0.0
2024-03-01 17:00:00+00:00,0.0
2024-03-01 18:00:00+00:00,0.0
2024-03-01 19:00:00+00:00,0.0
2024-03-01 20:00:00+00:00,0.0
2024-03-04 14:00:00+00:00,0.0
2024-03-04 15:00:00+00:00,0.0
2024-03-04 16:00:00+00:00,0.0
2024-03-04 17:00:00+00:00,0.0
2024-03-04 18:00:00+00:00,0.0
2024-03-04 19:00:00+00:00,0.0
2024-03-04 20:00:00+00:00,0.0
2024-03-05 14:00:00+00:00,0.0
2024-03-05 15:00:00+00:00,0.0
2024-03-05 16:00:00+00:00,0.0
2024-03-05 17:00:00+00:00,0.0
2024-03-05 18:00:00+00:00,0.0
2024-03-05 19:00:00+00:00,0.0
2024-03-05 20:00:00+00:00,0.0
2024-03-06 14:00:00+00:00,0.0
2024-03-06 15:00:00+00:00,0.0
2024-03-06 16:00:00+00:00,0.0
2024-03-06 17:00:00+00:00,0.0
2024-03-06 18:00:00+00:00,0.0
2024-03-06 19:00:00+00:00,0.0
2024-03-06 20:00:00+00:00,0.0
2024-03-07 14:00:00+00:00,0.0
2024-03-07 15:00:00+00:00,0.0
2024-03-07 16:00:00+00:00,0.0
2024-03-07 17:00:00+00:00,0.0
2024-03-07 18:00:00+00:00,0.0
2024-03-07 19:00:00+00:00,0.0
2024-03-07 20:00:00+00:00,0.0
2024-03-08 14:00:00+00:00,0.0
2024-03-08 15:00:00+00:00,0.0
2024-03-08 16:00:00+00:00,0.0
2024-03-08 17:00:00+00:00,0.0
2024-03-08 18:00:00+00:00,0.0
2024-03-08 19:00:00+00:00,0.0
2024-03-08 20:00:00+00:00,0.0
2024-03-11 13:00:00+00:00,0.0
2024-03-11 14:00:00+00:00,0.0
2024-03-11 15:00:00+00:00,0.0
2024-03-11 16:00:00+00:00,0.0
2024-03-11 17:00:00+00:00,0.0
2024-03-11 18:00:00+00:00,0.0
2024-03-11 19:00:00+00:00,0.0
2024-03-12 13:00:00+00:00,0.0
2024-03-12 14:00:00+00:00,0.0
2024-03-12 15:00:00+00:00,0.0
2024-03-12 16:00:00+00:00,0.0
2024-03-12 17:00:00+00:00,0.0
2024-03-12 18:00:00+00:00,0.0
2024-03-12 19:00:00+00:00,0.0
2024-03-13 13:00:00+00:00,0.0
2024-03-13 14:00:00+00:00,0.0
2024-03-13 15:00:00+00:00,0.0
2024-03-13 16:00:00+00:00,0.0
2024-03-13 17:00:00+00:00,0.0
2024-03-13 18:00:00+00:00,0.0
2024-03-13 19:00:00+00:00,0.0
2024-03-14 13:00:00+00:00,0.0
2024-03-14 14:00:00+00:00,0.0
2024-03-14 15:00:00+00:00,0.0
2024-03-14 16:00:00+00:00,0.0
2024-03-14 17:00:00+00:00,0.0
2024-03-14 18:00:00+00:00,0.0
2024-03-14 19:00:00+00:00,0.0
2024-03-15 13:00:00+00:00,0.0
2024-03-15 14:00:00+00:00,0.0
2024-03-15 15:00:00+00:00,0.0
2024-03-15 16:00:00+00:00,0.0
2024-03-15 17:00:00+00:00,0.0
2024-03-15 18:00:00+00:00,0.0
2024-03-15 19:00:00+00:00,0.0
2024-03-18 13:00:00+00:00,0.0
2024-03-18 14:00:00+00:00,0.0
2024-03-18 15:00:00+00:00,0.0
2024-03-18 16:00:00+00:00,0.0
2024-03-18 17:00:00+00:00,0.0
2024-03-18 18:00:00+00:00,0.0
2024-03-18 19:00:00+00:00,0.0
2024-03-19 13:00:00+00:00,0.0
2024-03-19 14:00:00+00:00,0.0
2024-03-19 15:00:00+00:00,0.0
2024-03-19 16:00:00+00:00,0.0
2024-03-19 17:00:00+00:00,0.0
2024-03-19 18:00:00+00:00,0.0
2024-03-19 19:00:00+00:00,0.0
2024-03-20 13:00:00+00:00,0.0
2024-03-20 14:00:00+00:00,0.0
2024-03-20 15:00:00+00:00,0.0
2024-03-20 16:00:00+00:00,0.0
2024-03-20 17:00:00+00:00,0.0
2024-03-20 18:00:00+00:00,0.0
2024-03-20 19:00:00+00:00,0.0
2024-03-21 13:00:00+00:00,0.0
2024-03-21 14:00:00+00:00,0.0
2024-03-21 15:00:00+00:00,0.0
2024-03-21 16:00:00+00:00,0.0
2024-03-21 17:00:00+00:00,0.0
2024-03-21 18:00:00+00:00,0.0
2024-03-21 19:00:00+00:00,0.0
2024-03-22 13:00:00+00:00,0.0
2024-03-22 14:00:00+00:00,0.0
2024-03-22 15:00:00+00:00,0.0
2024-03-22 16:00:00+00:00,0.0
2024-03-22 17:00:00+00:00,0.0
2024-03-22 18:00:00+00:00,0.0
2024-03-22 19:00:00+00:00,0.0
2024-03-25 13:00:00+00:00,0.0
2024-03-25 14:00:00+00:00,0.0
2024-03-25 15:00:00+00:00,0.0
2024-03-25 16:00:00+00:00,0.0
2024-03-25 17:00:00+00:00,0.0
2024-03-25 18:00:00+00:00,0.0
2024-03-25 19:00:00+00:00,0.0
2024-03-26 13:00:00+00:00,0.0
2024-03-26 14:00:00+00:00,0.0
2024-03-26 15:00:00+00:00,0.0
2024-03-26 16:00:00+00:00,0.0
2024-03-26 17:00:00+00:00,0.0
2024-03-26 18:00:00+00:00,0.0
2024-03-26 19:00:00+00:00,0.0
2024-03-27 13:00:00+00:00,0.0
2024-03-27 14:00:00+00:00,0.0
2024-03-27 15:00:00+00:00,0.0
2024-03-27 16:00:00+00:00,0.0
2024-03-27 17:00:00+00:00,0.0
2024-03-27 18:00:00+00:00,0.0
2024-03-27 19:00:00+00:00,0.0
2024-03-28 13:00:00+00:00,0.0
2024-03-28 14:00:00+00:00,0.0
2024-03-28 15:00:00+00:00,0.0
2024-03-28 16:00:00+00:00,0.0
2024-03-28 17:00:00+00:00,0.0
2024-03-28 18:00:00+00:00,0.0
2024-03-28 19:00:00+00:00,0.0
2024-04-01 13:00:00+00:00,0.0
2024-04-01 14:00:00+00:00,0.0
2024-04-01 15:00:00+00:00,0.0
2024-04-01 16:00:00+00:00,0.0
2024-04-01 17:00:00+00:00,0.0
2024-04-01 18:00:00+00:00,0.0
2024-04-01 19:00:00+00:00,0.0
2024-04-02 13:00:00+00:00,0.0
2024-04-02 14:00:00+00:00,0.0
2024-04-02 15:00:00+00:00,0.0
2024-04-02 16:00:00+00:00,0.0
2024-04-02 17:00:00+00:00,0.0
2024-04-02 18:00:00+00:00,0.0
2024-04-02 19:00:00+00:00,0.0
2024-04-03 13:00:00+00:00,0.0
2024-04-03 14:00:00+00:00,0.0
2024-04-03 15:00:00+00:00,0.0
2024-04-03 16:00:00+00:00,0.0
2024-04-03 17:00:00+00:00,0.0
2024-04-03 18:00:00+00:00,0.0
2024-04-03 19:00:00+00:00,0.0
2024-04-04 13:00:00+00:00,0.0
2024-04-04 14:00:00+00:00,0.0
2024-04-04 15:00:00+00:00,0.0
2024-04-04 16:00:00+00:00,0.0
2024-04-04 17:00:00+00:00,0.0
2024-04-04 18:00:00+00:00,0.0
2024-04-04 19:00:00+00:00,0.0
2024-04-05 13:00:00+00:00,0.0
2024-04-05 14:00:00+00:00,0.0
2024-04-05 15:00:00+00:00,0.0
2024-04-05 16:00:00+00:00,0.0
2024-04-05 17:00:00+00:00,0.0
2024-04-05 18:00:00+00:00,0.0
2024-04-05 19:00:00+00:00,0.0
2024-04-08 13:00:00+00:00,0.0
2024-04-08 14:00:00+00:00,0.0
2024-04-08 15:00:00+00:00,0.0
2024-04-08 16:00:00+00:00,0.0
2024-04-08 17:00:00+00:00,0.0
2024-04-08 18:00:00+00:00,0.0
2024-04-08 19:00:00+00:00,0.0
2024-04-09 13:00:00+00:00,0.0
2024-04-09 14:00:00+00:00,0.0
2024-04-09 15:00:00+00:00,0.0
2024-04-09 16:00:00+00:00,0.0
2024-04-09 17:00:00+00:00,0.0
2024-04-09 18:00:00+00:00,0.0
2024-04-09 19:00:00+00:00,0.0
2024-04-10 13:00:00+00:00,0.0
2024-04-10 14:00:00+00:00,0.0
2024-04-10 15:00:00+00:00,0.0
2024-04-10 16:00:00+00:00,0.0
2024-04-10 17:00:00+00:00,0.0
2024-04-10 18:00:00+00:00,0.0
2024-04-10 19:00:00+00:00,0.0
2024-04-11 13:00:00+00:00,0.0
2024-04-11 14:00:00+00:00,0.0
2024-04-11 15:00:00+00:00,0.0
2024-04-11 16:00:00+00:00,0.0
2024-04-11 17:00:00+00:00,0.0
2024-04-11 18:00:00+00:00,0.0
2024-04-11 19:00:00+00:00,0.0
2024-04-12 13:00:00+00:00,0.0
2024-04-12 14:00:00+00:00,0.0
2024-04-12 15:00:00+00:00,0.0
2024-04-12 16:00:00+00:00,0.0
2024-04-12 17:00:00+00:00,0.0
2024-04-12 18:00:00+00:00,0.0
2024-04-12 19:00:00+00:00,0.0
2024-04-15 13:00:00+00:00,0.0
2024-04-15 14:00:00+00:00,0.0
2024-04-15 15:00:00+00:00,0.0
2024-04-15 16:00:00+00:00,0.0
2024-04-15 17:00:00+00:00,0.0
2024-04-15 18:00:00+00:00,0.0
2024-04-15 19:00:00+00:00,0.0
2024-04-16 13:00:00+00:00,0.0
2024-04-16 14:00:00+00:00,0.0
2024-04-16 15:00:00+00:00,0.0
2024-04-16 16:00:00+00:00,0.0
2024-04-16 17:00:00+00:00,0.0
2024-04-16 18:00:00+00:00,0.0
2024-04-16 19:00:00+00:00,0.0
2024-04-17 13:00:00+00:00,0.0
2024-04-17 14:00:00+00:00,0.0
2024-04-17 15:00:00+00:00,0.0
2024-04-17 16:00:00+00:00,0.0
2024-04-17 17:00:00+00:00,0.0
2024-04-17 18:00:00+00:00,0.0
2024-04-17 19:00:00+00:00,0.0
2024-04-18 13:00:00+00:00,0.0
2024-04-18 14:00:00+00:00,0.0
2024-04-18 15:00:00+00:00,0.0
2024-04-18 16:00:00+00:00,0.0
2024-04-18 17:00:00+00:00,0.0
2024-04-18 18:00:00+00:00,0.0
2024-04-18 19:00:00+00:00,0.0
2024-04-19 13:00:00+00:00,0.0
2024-04-19 14:00:00+00:00,0.0
2024-04-19 15:00:00+00:00,0.0
2024-04-19 16:00:00+00:00,0.0
2024-04-19 17:00:00+00:00,0.0
2024-04-19 18:00:00+00:00,0.0
2024-04-19 19:00:00+00:00,0.0
2024-04-22 13:00:00+00:00,0.0
2024-04-22 14:00:00+00:00,0.0
2024-04-22 15:00:00+00:00,0.0
2024-04-22 16:00:00+00:00,0.0
2024-04-22 17:00:00+00:00,0.0
2024-04-22 18:00:00+00:00,0.0
2024-04-22 19:00:00+00:00,0.0
2024-04-23 13:00:00+00:00,0.0
2024-04-23 14:00:00+00:00,0.0
2024-04-23 15:00:00+00:00,0.0
2024-04-23 16:00:00+00:00,0.0
2024-04-23 17:00:00+00:00,0.0
2024-04-23 18:00:00+00:00,0.0
2024-04-23 19:00:00+00:00,0.0
2024-04-24 13:00:00+00:00,0.0
2024-04-24 14:00:00+00:00,0.0
2024-04-24 15:00:00+00:00,0.0
2024-04-24 16:00:00+00:00,0.0
2024-04-24 17:00:00+00:00,0.0
2024-04-24 18:00:00+00:00,0.0
2024-04-24 19:00:00+00:00,0.0
2024-04-25 13:00:00+00:00,0.0
2024-04-25 14:00:00+00:00,0.0
2024-04-25 15:00:00+00:00,0.0
2024-04-25 16:00:00+00:00,0.0
2024-04-25 17:00:00+00:00,0.0
2024-04-25 18:00:00+00:00,0.0
2024-04-25 19:00:00+00:00,0.0
2024-04-26 13:00:00+00:00,0.0
2024-04-26 14:00:00+00:00,0.0
2024-04-26 15:00:00+00:00,0.0
2024-04-26 16:00:00+00:00,0.0
2024-04-26 17:00:00+00:00,0.0
2024-04-26 18:00:00+00:00,0.0
2024-04-26 19:00:00+00:00,0.0
2024-04-29 13:00:00+00:00,0.0
2024-04-29 14:00:00+00:00,0.0
2024-04-29 15:00:00+00:00,0.0
2024-04-29 16:00:00+00:00,0.0
2024-04-29 17:00:00+00:00,0.0
2024-04-29 18:00:00+00:00,0.0
2024-04-29 19:00:00+00:00,0.0
2024-04-30 13:00:00+00:00,0.0
2024-04-30 14:00:00+00:00,0.0
2024-04-30 15:00:00+00:00,0.0
2024-04-30 16:00:00+00:00,0.0
2024-04-30 17:00:00+00:00,0.0
2024-04-30 18:00:00+00:00,0.0
2024-04-30 19:00:00+00:00,0.0
2024-05-01 13:00:00+00:00,0.0
2024-05-01 14:00:00+00:00,0.0
2024-05-01 15:00:00+00:00,0.0
2024-05-01 16:00:00+00:00,0.0
2024-05-01 17:00:00+00:00,0.0
2024-05-01 18:00:00+00:00,0.0
2024-05-01 19:00:00+00:00,0.0
2024-05-02 13:00:00+00:00,0.0
2024-05-02 14:00:00+00:00,0.0
2024-05-02 15:00:00+00:00,0.0
2024-05-02 16:00:00+00:00,0.0
2024-05-02 17:00:00+00:00,0.0
2024-05-02 18:00:00+00:00,0.0
2024-05-02 19:00:00+00:00,0.0
2024-05-03 13:00:00+00:00,0.0
2024-05-03 14:00:00+00:00,0.0
2024-05-03 15:00:00+00:00,0.0
2024-05-03 16:00:00+00:00,0.0
2024-05-03 17:00:00+00:00,0.0
2024-05-03 18:00:00+00:00,0.0
2024-05-03 19:00:00+00:00,0.0
2024-05-06 13:00:00+00:00,0.0
2024-05-06 14:00:00+00:00,0.0
2024-05-06 15:00:00+00:00,0.0
2024-05-06 16:00:00+00:00,0.0
2024-05-06 17:00:00+00:00,0.0
2024-05-06 18:00:00+00:00,0.0
2024-05-06 19:00:00+00:00,0.0
2024-05-07 13:00:00+00:00,0.0
2024-05-07 14:00:00+00:00,0.0
2024-05-07 15:00:00+00:00,0.0
2024-05-07 16:00:00+00:00,0.0
2024-05-07 17:00:00+00:00,0.0
2024-05-07 18:00:00+00:00,0.0
2024-05-07 19:00:00+00:00,0.0
2024-05-08 13:00:00+00:00,0.0
2024-05-08 14:00:00+00:00,0.0
2024-05-08 15:00:00+00:00,0.0
2024-05-08 16:00:00+00:00,0.0
2024-05-08 17:00:00+00:00,0.0
2024-05-08 18:00:00+00:00,0.0
2024-05-08 19:00:00+00:00,0.0
2024-05-09 13:00:00+00:00,0.0
2024-05-09 14:00:00+00:00,0.0
2024-05-09 15:00:00+00:00,0.0
2024-05-09 16:00:00+00:00,0.0
2024-05-09 17:00:00+00:00,0.0
2024-05-09 18:00:00+00:00,0.0
2024-05-09 19:00:00+00:00,0.0
2024-05-10 13:00:00+00:00,0.0
2024-05-10 14:00:00+00:00,0.0
2024-05-10 15:00:00+00:00,0.0
2024-05-10 16:00:00+00:00,0.0
2024-05-10 17:00:00+00:00,0.0
2024-05-10 18:00:00+00:00,0.0
2024-05-10 19:00:00+00:00,0.0
2024-05-13 13:00:00+00:00,0.0
2024-05-13 14:00:00+00:00,0.0
2024-05-13 15:00:00+00:00,0.0
2024-05-13 16:00:00+00:00,0.0
2024-05-13 17:00:00+00:00,0.0
2024-05-13 18:00:00+00:00,0.0
2024-05-13 19:00:00+00:00,0.0
2024-05-14 13:00:00+00:00,0.0
2024-05-14 14:00:00+00:00,0.0
2024-05-14 15:00:00+00:00,0.0
2024-05-14 16:00:00+00:00,0.0
2024-05-14 17:00:00+00:00,0.0
2024-05-14 18:00:00+00:00,0.0
2024-05-14 19:00:00+00:00,0.0
2024-05-15 13:00:00+00:00,0.0
2024-05-15 14:00:00+00:00,0.0
2024-05-15 15:00:00+00:00,0.0
2024-05-15 16:00:00+00:00,0.0
2024-05-15 17:00:00+00:00,0.0
2024-05-15 18:00:00+00:00,0.0
2024-05-15 19:00:00+00:00,0.0
2024-05-16 13:00:00+00:00,0.0
2024-05-16 14:00:00+00:00,0.0
2024-05-16 15:00:00+00:00,0.0
2024-05-16 16:00:00+00:00,0.0
2024-05-16 17:00:00+00:00,0.0
2024-05-16 18:00:00+00:00,0.0
2024-05-16 19:00:00+00:00,0.0
2024-05-17 13:00:00+00:00,0.0
2024-05-17 14:00:00+00:00,0.0
2024-05-17 15:00:00+00:00,0.0
2024-05-17 16:00:00+00:00,0.0
2024-05-17 17:00:00+00:00,0.0
2024-05-17 18:00:00+00:00,0.0
2024-05-17 19:00:00+00:00,0.0
2024-05-20 13:00:00+00:00,0.0
2024-05-20 14:00:00+00:00,0.0
2024-05-20 15:00:00+00:00,0.0
2024-05-20 16:00:00+00:00,0.0
2024-05-20 17:00:00+00:00,0.0
2024-05-20 18:00:00+00:00,0.0
2024-05-20 19:00:00+00:00,0.0
2024-05-21 13:00:00+00:00,0.0
2024-05-21 14:00:00+00:00,0.0
2024-05-21 15:00:00+00:00,0.0
2024-05-21 16:00:00+00:00,0.0
2024-05-21 17:00:00+00:00,0.0
2024-05-21 18:00:00+00:00,0.0
2024-05-21 19:00:00+00:00,0.0
2024-05-22 13:00:00+00:00,0.0
2024-05-22 14:00:00+00:00,0.0
2024-05-22 15:00:00+00:00,0.0
2024-05-22 16:00:00+00:00,0.0
2024-05-22 17:00:00+00:00,0.0
2024-05-22 18:00:00+00:00,0.0
2024-05-22 19:00:00+00:00,0.0
2024-05-23 13:00:00+00:00,0.0
2024-05-23 14:00:00+00:00,0.0
2024-05-23 15:00:00+00:00,0.0
2024-05-23 16:00:00+00:00,0.0
2024-05-23 17:00:00+00:00,0.0
2024-05-23 18:00:00+00:00,0.0
2024-05-23 19:00:00+00:00,0.0
2024-05-24 13:00:00+00:00,0.0
2024-05-24 14:00:00+00:00,0.0
2024-05-24 15:00:00+00:00,0.0
2024-05-24 16:00:00+00:00,0.0
2024-05-24 17:00:00+00:00,0.0
2024-05-24 18:00:00+00:00,0.0
2024-05-24 19:00:00+00:00,0.0
2024-05-28 13:00:00+00:00,0.0
2024-05-28 14:00:00+00:00,0.0
2024-05-28 15:00:00+00:00,0.0
2024-05-28 16:00:00+00:00,0.0
2024-05-28 17:00:00+00:00,0.0
2024-05-28 18:00:00+00:00,0.0
2024-05-28 19:00:00+00:00,0.0
2024-05-29 13:00:00+00:00,0.0
2024-05-29 14:00:00+00:00,0.0
2024-05-29 15:00:00+00:00,0.0
2024-05-29 16:00:00+00:00,0.0
2024-05-29 17:00:00+00:00,0.0
2024-05-29 18:00:00+00:00,0.0
2024-05-29 19:00:00+00:00,0.0
2024-05-30 13:00:00+00:00,0.0
2024-05-30 14:00:00+00:00,0.0
2024-05-30 15:00:00+00:00,0.0
2024-05-30 16:00:00+00:00,0.0
2024-05-30 17:00:00+00:00,0.0
2024-05-30 18:00:00+00:00,0.0
2024-05-30 19:00:00+00:00,0.0
2024-05-31 13:00:00+00:00,0.0
2024-05-31 14:00:00+00:00,0.0
2024-05-31 15:00:00+00:00,0.0
2024-05-31 16:00:00+00:00,0.0
2024-05-31 17:00:00+00:00,0.0
2024-05-31 18:00:00+00:00,0.0
2024-05-31 19:00:00+00:00,0.0
2024-06-03 13:00:00+00:00,0.0
2024-06-03 14:00:00+00:00,0.0
2024-06-03 15:00:00+00:00,0.0
2024-06-03 16:00:00+00:00,0.0
2024-06-03 17:00:00+00:00,0.0
2024-06-03 18:00:00+00:00,0.0
2024-06-03 19:00:00+00:00,0.0
2024-06-04 13:00:00+00:00,0.0
2024-06-04 14:00:00+00:00,0.0
2024-06-04 15:00:00+00:00,0.0
2024-06-04 16:00:00+00:00,0.0
2024-06-04 17:00:00+00:00,0.0
2024-06-04 18:00:00+00:00,0.0
2024-06-04 19:00:00+00:00,0.0
2024-06-05 13:00:00+00:00,0.0
2024-06-05 14:00:00+00:00,0.0
2024-06-05 15:00:00+00:00,0.0
2024-06-05 16:00:00+00:00,0.0
2024-06-05 17:00:00+00:00,0.0
2024-06-05 18:00:00+00:00,0.0
2024-06-05 19:00:00+00:00,0.0
2024-06-06 13:00:00+00:00,0.0
2024-06-06 14:00:00+00:00,0.0
2024-06-06 15:00:00+00:00,0.0
2024-06-06 16:00:00+00:00,0.0
2024-06-06 17:00:00+00:00,0.0
2024-06-06 18:00:00+00:00,0.0
2024-06-06 19:00:00+00:00,0.0
2024-06-07 13:00:00+00:00,0.0
2024-06-07 14:00:00+00:00,0.0
2024-06-07 15:00:00+00:00,0.0
2024-06-07 16:00:00+00:00,0.0
2024-06-07 17:00:00+00:00,0.0
2024-06-07 18:00:00+00:00,0.0
2024-06-07 19:00:00+00:00,0.0
2024-06-10 13:00:00+00:00,0.0
2024-06-10 14:00:00+00:00,0.0
2024-06-10 15:00:00+00:00,0.0
2024-06-10 16:00:00+00:00,0.0
2024-06-10 17:00:00+00:00,0.0
2024-06-10 18:00:00+00:00,0.0
2024-06-10 19:00:00+00:00,0.0
2024-06-11 13:00:00+00:00,0.0
2024-06-11 14:00:00+00:00,0.0
2024-06-11 15:00:00+00:00,0.0
2024-06-11 16:00:00+00:00,0.0
2024-06-11 17:00:00+00:00,0.0
2024-06-11 18:00:00+00:00,0.0
2024-06-11 19:00:00+00:00,0.0
2024-06-12 13:00:00+00:00,0.0
2024-06-12 14:00:00+00:00,0.0
2024-06-12 15:00:00+00:00,0.0
2024-06-12 16:00:00+00:00,0.0
2024-06-12 17:00:00+00:00,0.0
2024-06-12 18:00:00+00:00,0.0
2024-06-12 19:00:00+00:00,0.0
2024-06-13 13:00:00+00:00,0.0
2024-06-13 14:00:00+00:00,0.0
2024-06-13 15:00:00+00:00,0.0
2024-06-13 16:00:00+00:00,0.0
2024-06-13 17:00:00+00:00,0.0
2024-06-13 18:00:00+00:00,0.0
2024-06-13 19:00:00+00:00,0.0
2024-06-14 13:00:00+00:00,0.0
2024-06-14 14:00:00+00:00,0.0
2024-06-14 15:00:00+00:00,0.0
2024-06-14 16:00:00+00:00,0.0
2024-06-14 17:00:00+00:00,0.0
2024-06-14 18:00:00+00:00,0.0
2024-06-14 19:00:00+00:00,0.0
2024-06-17 13:00:00+00:00,0.0
2024-06-17 14:00:00+00:00,0.0
2024-06-17 15:00:00+00:00,0.0
2024-06-17 16:00:00+00:00,0.0
2024-06-17 17:00:00+00:00,0.0
2024-06-17 18:00:00+00:00,0.0
2024-06-17 19:00:00+00:00,0.0
2024-06-18 13:00:00+00:00,0.0
2024-06-18 14:00:00+00:00,0.0
2024-06-18 15:00:00+00:00,0.0
2024-06-18 16:00:00+00:00,0.0
2024-06-18 17:00:00+00:00,0.0
2024-06-18 18:00:00+00:00,0.0
2024-06-18 19:00:00+00:00,0.0
2024-06-20 13:00:00+00:00,0.0
2024-06-20 14:00:00+00:00,0.0
2024-06-20 15:00:00+00:00,0.0
2024-06-20 16:00:00+00:00,0.0
2024-06-20 17:00:00+00:00,0.0
2024-06-20 18:00:00+00:00,0.0
2024-06-20 19:00:00+00:00,0.0
2024-06-21 13:00:00+00:00,0.0
2024-06-21 14:00:00+00:00,0.0
2024-06-21 15:00:00+00:00,0.0
2024-06-21 16:00:00+00:00,0.0
2024-06-21 17:00:00+00:00,0.0
2024-06-21 18:00:00+00:00,0.0
2024-06-21 19:00:00+00:00,0.0
2024-06-24 13:00:00+00:00,0.0
2024-06-24 14:00:00+00:00,0.0
2024-06-24 15:00:00+00:00,0.0
2024-06-24 16:00:00+00:00,0.0
2024-06-24 17:00:00+00:00,0.0
2024-06-24 18:00:00+00:00,0.0
2024-06-24 19:00:00+00:00,0.0
2024-06-25 13:00:00+00:00,0.0
2024-06-25 14:00:00+00:00,0.0
2024-06-25 15:00:00+00:00,0.0
2024-06-25 16:00:00+00:00,0.0
2024-06-25 17:00:00+00:00,0.0
2024-06-25 18:00:00+00:00,0.0
2024-06-25 19:00:00+00:00,0.0
2024-06-26 13:00:00+00:00,0.0
2024-06-26 14:00:00+00:00,0.0
2024-06-26 15:00:00+00:00,0.0
2024-06-26 16:00:00+00:00,0.0
2024-06-26 17:00:00+00:00,0.0
2024-06-26 18:00:00+00:00,0.0
2024-06-26 19:00:00+00:00,0.0
2024-06-27 13:00:00+00:00,0.0
2024-06-27 14:00:00+00:00,0.0
2024-06-27 15:00:00+00:00,0.0
2024-06-27 16:00:00+00:00,0.0
2024-06-27 17:00:00+00:00,0.0
2024-06-27 18:00:00+00:00,0.0
2024-06-27 19:00:00+00:00,0.0
2024-06-28 13:00:00+00:00,0.0
2024-06-28 14:00:00+00:00,0.0
2024-06-28 15:00:00+00:00,0.0
2024-06-28 16:00:00+00:00,0.0
2024-06-28 17:00:00+00:00,0.0
2024-06-28 18:00:00+00:00,0.0
2024-06-28 19:00:00+00:00,0.0
2024-07-01 13:00:00+00:00,0.0
2024-07-01 14:00:00+00:00,0.0
2024-07-01 15:00:00+00:00,0.0
2024-07-01 16:00:00+00:00,0.0
2024-07-01 17:00:00+00:00,0.0
2024-07-01 18:00:00+00:00,0.0
2024-07-01 19:00:00+00:00,0.0
2024-07-02 13:00:00+00:00,0.0
2024-07-02 14:00:00+00:00,0.0
2024-07-02 15:00:00+00:00,0.0
2024-07-02 16:00:00+00:00,0.0
2024-07-02 17:00:00+00:00,0.0
2024-07-02 18:00:00+00:00,0.0
2024-07-02 19:00:00+00:00,0.0
2024-07-03 13:00:00+00:00,0.0
2024-07-03 14:00:00+00:00,0.0
2024-07-03 15:00:00+00:00,0.0
2024-07-05 13:00:00+00:00,0.0
2024-07-05 14:00:00+00:00,0.0
2024-07-05 15:00:00+00:00,0.0
2024-07-05 16:00:00+00:00,0.0
2024-07-05 17:00:00+00:00,0.0
2024-07-05 18:00:00+00:00,0.0
2024-07-05 19:00:00+00:00,0.0
2024-07-08 13:00:00+00:00,0.0
2024-07-08 14:00:00+00:00,0.0
2024-07-08 15:00:00+00:00,0.0
2024-07-08 16:00:00+00:00,0.0
2024-07-08 17:00:00+00:00,0.0
2024-07-08 18:00:00+00:00,0.0
2024-07-08 19:00:00+00:00,0.0
2024-07-09 13:00:00+00:00,0.0
2024-07-09 14:00:00+00:00,0.0
2024-07-09 15:00:00+00:00,0.0
2024-07-09 16:00:00+00:00,0.0
2024-07-09 17:00:00+00:00,0.0
2024-07-09 18:00:00+00:00,0.0
2024-07-09 19:00:00+00:00,0.0
2024-07-10 13:00:00+00:00,0.0
2024-07-10 14:00:00+00:00,0.0
2024-07-10 15:00:00+00:00,0.0
2024-07-10 16:00:00+00:00,0.0
2024-07-10 17:00:00+00:00,0.0
2024-07-10 18:00:00+00:00,0.0
2024-07-10 19:00:00+00:00,0.0
2024-07-11 13:00:00+00:00,0.0
2024-07-11 14:00:00+00:00,0.0
2024-07-11 15:00:00+00:00,0.0
2024-07-11 16:00:00+00:00,0.0
2024-07-11 17:00:00+00:00,0.0
2024-07-11 18:00:00+00:00,0.0
2024-07-11 19:00:00+00:00,0.0
2024-07-12 13:00:00+00:00,0.0
2024-07-12 14:00:00+00:00,0.0
2024-07-12 15:00:00+00:00,0.0
2024-07-12 16:00:00+00:00,0.0
2024-07-12 17:00:00+00:00,0.0
2024-07-12 18:00:00+00:00,0.0
2024-07-12 19:00:00+00:00,0.0
2024-07-15 13:00:00+00:00,0.0
2024-07-15 14:00:00+00:00,0.0
2024-07-15 15:00:00+00:00,0.0
2024-07-15 16:00:00+00:00,0.0
2024-07-15 17:00:00+00:00,0.0
2024-07-15 18:00:00+00:00,0.0
2024-07-15 19:00:00+00:00,0.0
2024-07-16 13:00:00+00:00,0.0
2024-07-16 14:00:00+00:00,0.0
2024-07-16 15:00:00+00:00,0.0
2024-07-16 16:00:00+00:00,0.0
2024-07-16 17:00:00+00:00,0.0
2024-07-16 18:00:00+00:00,0.0
2024-07-16 19:00:00+00:00,0.0
2024-07-17 13:00:00+00:00,0.0
2024-07-17 14:00:00+00:00,0.0
2024-07-17 15:00:00+00:00,0.0
2024-07-17 16:00:00+00:00,0.0
2024-07-17 17:00:00+00:00,0.0
2024-07-17 18:00:00+00:00,0.0
2024-07-17 19:00:00+00:00,0.0
2024-07-18 13:00:00+00:00,0.0
2024-07-18 14:00:00+00:00,0.0
2024-07-18 15:00:00+00:00,0.0
2024-07-18 16:00:00+00:00,0.0
2024-07-18 17:00:00+00:00,0.0
2024-07-18 18:00:00+00:00,0.0
2024-07-18 19:00:00+00:00,0.0
2024-07-19 13:00:00+00:00,0.0
2024-07-19 14:00:00+00:00,0.0
2024-07-19 15:00:00+00:00,0.0
2024-07-19 16:00:00+00:00,0.0
2024-07-19 17:00:00+00:00,0.0
2024-07-19 18:00:00+00:00,0.0
2024-07-19 19:00:00+00:00,0.0
2024-07-22 13:00:00+00:00,0.0
2024-07-22 14:00:00+00:00,0.0
2024-07-22 15:00:00+00:00,0.0
2024-07-22 16:00:00+00:00,0.0
2024-07-22 17:00:00+00:00,0.0
2024-07-22 18:00:00+00:00,0.0
2024-07-22 19:00:00+00:00,0.0
2024-07-23 13:00:00+00:00,0.0
2024-07-23 14:00:00+00:00,0.0
2024-07-23 15:00:00+00:00,0.0
2024-07-23 16:00:00+00:00,0.0
2024-07-23 17:00:00+00:00,0.0
2024-07-23 18:00:00+00:00,0.0
2024-07-23 19:00:00+00:00,0.0
2024-07-24 13:00:00+00:00,0.0
2024-07-24 14:00:00+00:00,0.0
2024-07-24 15:00:00+00:00,0.0
2024-07-24 16:00:00+00:00,0.0
2024-07-24 17:00:00+00:00,0.0
2024-07-24 18:00:00+00:00,0.0
2024-07-24 19:00:00+00:00,0.0
2024-07-25 13:00:00+00:00,0.0
2024-07-25 14:00:00+00:00,0.0
2024-07-25 15:00:00+00:00,0.0
2024-07-25 16:00:00+00:00,0.0
2024-07-25 17:00:00+00:00,0.0
2024-07-25 18:00:00+00:00,0.0
2024-07-25 19:00:00+00:00,0.0
2024-07-26 13:00:00+00:00,0.0
2024-07-26 14:00:00+00:00,0.0
2024-07-26 15:00:00+00:00,0.0
2024-07-26 16:00:00+00:00,0.0
2024-07-26 17:00:00+00:00,0.0
2024-07-26 18:00:00+00:00,0.0
2024-07-26 19:00:00+00:00,0.0
2024-07-29 13:00:00+00:00,0.0
2024-07-29 14:00:00+00:00,0.0
2024-07-29 15:00:00+00:00,0.0
2024-07-29 16:00:00+00:00,0.0
2024-07-29 17:00:00+00:00,0.0
2024-07-29 18:00:00+00:00,0.0
2024-07-29 19:00:00+00:00,0.0
2024-07-30 13:00:00+00:00,0.0
2024-07-30 14:00:00+00:00,0.0
2024-07-30 15:00:00+00:00,0.0
2024-07-30 16:00:00+00:00,0.0
2024-07-30 17:00:00+00:00,0.0
2024-07-30 18:00:00+00:00,0.0
2024-07-30 19:00:00+00:00,0.0
2024-07-31 13:00:00+00:00,0.0
2024-07-31 14:00:00+00:00,0.0
2024-07-31 15:00:00+00:00,0.0
2024-07-31 16:00:00+00:00,0.0
2024-07-31 17:00:00+00:00,0.0
2024-07-31 18:00:00+00:00,0.0
2024-07-31 19:00:00+00:00,0.0
2024-08-01 13:00:00+00:00,0.0
2024-08-01 14:00:00+00:00,0.0
2024-08-01 15:00:00+00:00,0.0
2024-08-01 16:00:00+00:00,0.0
2024-08-01 17:00:00+00:00,0.0
2024-08-01 18:00:00+00:00,0.0
2024-08-01 19:00:00+00:00,0.0
2024-08-02 13:00:00+00:00,0.0
2024-08-02 14:00:00+00:00,0.0
2024-08-02 15:00:00+00:00,0.0
2024-08-02 16:00:00+00:00,0.0
2024-08-02 17:00:00+00:00,0.0
2024-08-02 18:00:00+00:00,0.0
2024-08-02 19:00:00+00:00,0.0
2024-08-05 13:00:00+00:00,0.0
2024-08-05 14:00:00+00:00,0.0
2024-08-05 15:00:00+00:00,0.0
2024-08-05 16:00:00+00:00,0.0
2024-08-05 17:00:00+00:00,0.0
2024-08-05 18:00:00+00:00,0.0
2024-08-05 19:00:00+00:00,0.0
2024-08-06 13:00:00+00:00,0.0
2024-08-06 14:00:00+00:00,0.0
2024-08-06 15:00:00+00:00,0.0
2024-08-06 16:00:00+00:00,0.0
2024-08-06 17:00:00+00:00,0.0
2024-08-06 18:00:00+00:00,0.0
2024-08-06 19:00:00+00:00,0.0
2024-08-07 13:00:00+00:00,0.0
2024-08-07 14:00:00+00:00,0.0
2024-08-07 15:00:00+00:00,0.0
2024-08-07 16:00:00+00:00,0.0
2024-08-07 17:00:00+00:00,0.0
2024-08-07 18:00:00+00:00,0.0
2024-08-07 19:00:00+00:00,0.0
2024-08-08 13:00:00+00:00,0.0
2024-08-08 14:00:00+00:00,0.0
2024-08-08 15:00:00+00:00,0.0
2024-08-08 16:00:00+00:00,0.0
2024-08-08 17:00:00+00:00,0.0
2024-08-08 18:00:00+00:00,0.0
2024-08-08 19:00:00+00:00,0.0
2024-08-09 13:00:00+00:00,0.0
2024-08-09 14:00:00+00:00,0.0
2024-08-09 15:00:00+00:00,0.0
2024-08-09 16:00:00+00:00,0.0
2024-08-09 17:00:00+00:00,0.0
2024-08-09 18:00:00+00:00,0.0
2024-08-09 19:00:00+00:00,0.0
2024-08-12 13:00:00+00:00,0.0
2024-08-12 14:00:00+00:00,0.0
2024-08-12 15:00:00+00:00,0.0
2024-08-12 16:00:00+00:00,0.0
2024-08-12 17:00:00+00:00,0.0
2024-08-12 18:00:00+00:00,0.0
2024-08-12 19:00:00+00:00,0.0
2024-08-13 13:00:00+00:00,0.0
2024-08-13 14:00:00+00:00,0.0
2024-08-13 15:00:00+00:00,0.0
2024-08-13 16:00:00+00:00,0.0
2024-08-13 17:00:00+00:00,0.0
2024-08-13 18:00:00+00:00,0.0
2024-08-13 19:00:00+00:00,0.0
2024-08-14 13:00:00+00:00,0.0
2024-08-14 14:00:00+00:00,0.0
2024-08-14 15:00:00+00:00,0.0
2024-08-14 16:00:00+00:00,0.0
2024-08-14 17:00:00+00:00,0.0
2024-08-14 18:00:00+00:00,0.0
2024-08-14 19:00:00+00:00,0.0
2024-08-15 13:00:00+00:00,0.0
2024-08-15 14:00:00+00:00,0.0
2024-08-15 15:00:00+00:00,0.0
2024-08-15 16:00:00+00:00,0.0
2024-08-15 17:00:00+00:00,0.0
2024-08-15 18:00:00+00:00,0.0
2024-08-15 19:00:00+00:00,0.0
2024-08-16 13:00:00+00:00,0.0
2024-08-16 14:00:00+00:00,0.0
2024-08-16 15:00:00+00:00,0.0
2024-08-16 16:00:00+00:00,0.0
2024-08-16 17:00:00+00:00,0.0
2024-08-16 18:00:00+00:00,0.0
2024-08-16 19:00:00+00:00,0.0
2024-08-19 13:00:00+00:00,0.0
2024-08-19 14:00:00+00:00,0.0
2024-08-19 15:00:00+00:00,0.0
2024-08-19 16:00:00+00:00,0.0
2024-08-19 17:00:00+00:00,0.0
2024-08-19 18:00:00+00:00,0.0
2024-08-19 19:00:00+00:00,0.0
2024-08-20 13:00:00+00:00,0.0
2024-08-20 14:00:00+00:00,0.0
2024-08-20 15:00:00+00:00,0.0
2024-08-20 16:00:00+00:00,0.0
2024-08-20 17:00:00+00:00,0.0
2024-08-20 18:00:00+00:00,0.0
2024-08-20 19:00:00+00:00,0.0
2024-08-21 13:00:00+00:00,0.0
2024-08-21 14:00:00+00:00,0.0
2024-08-21 15:00:00+00:00,0.0
2024-08-21 16:00:00+00:00,0.0
2024-08-21 17:00:00+00:00,0.0
2024-08-21 18:00:00+00:00,0.0
2024-08-21 19:00:00+00:00,0.0
2024-08-22 13:00:00+00:00,0.0
2024-08-22 14:00:00+00:00,0.0
2024-08-22 15:00:00+00:00,0.0
2024-08-22 16:00:00+00:00,0.0
2024-08-22 17:00:00+00:00,0.0
2024-08-22 18:00:00+00:00,0.0
2024-08-22 19:00:00+00:00,0.0
2024-08-23 13:00:00+00:00,0.0
2024-08-23 14:00:00+00:00,0.0
2024-08-23 15:00:00+00:00,0.0
2024-08-23 16:00:00+00:00,0.0
2024-08-23 17:00:00+00:00,0.0
2024-08-23 18:00:00+00:00,0.0
2024-08-23 19:00:00+00:00,0.0
2024-08-26 13:00:00+00:00,0.0
2024-08-26 14:00:00+00:00,0.0
2024-08-26 15:00:00+00:00,0.0
2024-08-26 16:00:00+00:00,0.0
2024-08-26 17:00:00+00:00,0.0
2024-08-26 18:00:00+00:00,0.0
2024-08-26 19:00:00+00:00,0.0
2024-08-27 13:00:00+00:00,0.0
2024-08-27 14:00:00+00:00,0.0
2024-08-27 15:00:00+00:00,0.0
2024-08-27 16:00:00+00:00,0.0
2024-08-27 17:00:00+00:00,0.0
2024-08-27 18:00:00+00:00,0.0
2024-08-27 19:00:00+00:00,0.0
2024-08-28 13:00:00+00:00,0.0
2024-08-28 14:00:00+00:00,0.0
2024-08-28 15:00:00+00:00,0.0
2024-08-28 16:00:00+00:00,0.0
2024-08-28 17:00:00+00:00,0.0
2024-08-28 18:00:00+00:00,0.0
2024-08-28 19:00:00+00:00,0.0
2024-08-29 13:00:00+00:00,0.0
2024-08-29 14:00:00+00:00,0.0
2024-08-29 15:00:00+00:00,0.0
2024-08-29 16:00:00+00:00,0.0
2024-08-29 17:00:00+00:00,0.0
2024-08-29 18:00:00+00:00,0.0
2024-08-29 19:00:00+00:00,0.0
2024-08-30 13:00:00+00:00,0.0
2024-08-30 14:00:00+00:00,0.0
2024-08-30 15:00:00+00:00,0.0
2024-08-30 16:00:00+00:00,0.0
2024-08-30 17:00:00+00:00,0.0
2024-08-30 18:00:00+00:00,0.0
2024-08-30 19:00:00+00:00,0.0
2024-09-03 13:00:00+00:00,0.0
2024-09-03 14:00:00+00:00,0.0
2024-09-03 15:00:00+00:00,0.0
2024-09-03 16:00:00+00:00,0.0
2024-09-03 17:00:00+00:00,0.0
2024-09-03 18:00:00+00:00,0.0
2024-09-03 19:00:00+00:00,0.0
2024-09-04 13:00:00+00:00,0.0
2024-09-04 14:00:00+00:00,0.0
2024-09-04 15:00:00+00:00,0.0
2024-09-04 16:00:00+00:00,0.0
2024-09-04 17:00:00+00:00,0.0
2024-09-04 18:00:00+00:00,0.0
2024-09-04 19:00:00+00:00,0.0
2024-09-05 13:00:00+00:00,0.0
2024-09-05 14:00:00+00:00,0.0
2024-09-05 15:00:00+00:00,0.0
2024-09-05 16:00:00+00:00,0.0
2024-09-05 17:00:00+00:00,0.0
2024-09-05 18:00:00+00:00,0.0
2024-09-05 19:00:00+00:00,0.0
2024-09-06 13:00:00+00:00,0.0
2024-09-06 14:00:00+00:00,0.0
2024-09-06 15:00:00+00:00,0.0
2024-09-06 16:00:00+00:00,0.0
2024-09-06 17:00:00+00:00,0.0
2024-09-06 18:00:00+00:00,0.0
2024-09-06 19:00:00+00:00,0.0
2024-09-09 13:00:00+00:00,0.0
2024-09-09 14:00:00+00:00,0.0
2024-09-09 15:00:00+00:00,0.0
2024-09-09 16:00:00+00:00,0.0
2024-09-09 17:00:00+00:00,0.0
2024-09-09 18:00:00+00:00,0.0
2024-09-09 19:00:00+00:00,0.0
2024-09-10 13:00:00+00:00,0.0
2024-09-10 14:00:00+00:00,0.0
2024-09-10 15:00:00+00:00,0.0
2024-09-10 16:00:00+00:00,0.0
2024-09-10 17:00:00+00:00,0.0
2024-09-10 18:00:00+00:00,0.0
2024-09-10 19:00:00+00:00,0.0
2024-09-11 13:00:00+00:00,0.0
2024-09-11 14:00:00+00:00,0.0
2024-09-11 15:00:00+00:00,0.0
2024-09-11 16:00:00+00:00,0.0
2024-09-11 17:00:00+00:00,0.0
2024-09-11 18:00:00+00:00,0.0
2024-09-11 19:00:00+00:00,0.0
2024-09-12 13:00:00+00:00,0.0
2024-09-12 14:00:00+00:00,0.0
2024-09-12 15:00:00+00:00,0.0
2024-09-12 16:00:00+00:00,0.0
2024-09-12 17:00:00+00:00,0.0
2024-09-12 18:00:00+00:00,0.0
2024-09-12 19:00:00+00:00,0.0
2024-09-13 13:00:00+00:00,0.0
2024-09-13 14:00:00+00:00,0.0
2024-09-13 15:00:00+00:00,0.0
2024-09-13 16:00:00+00:00,0.0
2024-09-13 17:00:00+00:00,0.0
2024-09-13 18:00:00+00:00,0.0
2024-09-13 19:00:00+00:00,0.0
2024-09-16 13:00:00+00:00,0.0
2024-09-16 14:00:00+00:00,0.0
2024-09-16 15:00:00+00:00,0.0
2024-09-16 16:00:00+00:00,0.0
2024-09-16 17:00:00+00:00,0.0
2024-09-16 18:00:00+00:00,0.0
2024-09-16 19:00:00+00:00,0.0
2024-09-17 13:00:00+00:00,0.0
2024-09-17 14:00:00+00:00,0.0
2024-09-17 15:00:00+00:00,0.0
2024-09-17 16:00:00+00:00,0.0
2024-09-17 17:00:00+00:00,0.0
2024-09-17 18:00:00+00:00,0.0
2024-09-17 19:00:00+00:00,0.0
2024-09-18 13:00:00+00:00,0.0
2024-09-18 14:00:00+00:00,0.0
2024-09-18 15:00:00+00:00,0.0
2024-09-18 16:00:00+00:00,0.0
2024-09-18 17:00:00+00:00,0.0
2024-09-18 18:00:00+00:00,0.0
2024-09-18 19:00:00+00:00,0.0
2024-09-19 13:00:00+00:00,0.0
2024-09-19 14:00:00+00:00,0.0
2024-09-19 15:00:00+00:00,0.0
2024-09-19 16:00:00+00:00,0.0
2024-09-19 17:00:00+00:00,0.0
2024-09-19 18:00:00+00:00,0.0
2024-09-19 19:00:00+00:00,0.0
2024-09-20 13:00:00+00:00,0.0
2024-09-20 14:00:00+00:00,0.0
2024-09-20 15:00:00+00:00,0.0
2024-09-20 16:00:00+00:00,0.0
2024-09-20 17:00:00+00:00,0.0
2024-09-20 18:00:00+00:00,0.0
2024-09-20 19:00:00+00:00,0.0
2024-09-23 13:00:00+00:00,0.0
2024-09-23 14:00:00+00:00,0.0
2024-09-23 15:00:00+00:00,0.0
2024-09-23 16:00:00+00:00,0.0
2024-09-23 17:00:00+00:00,0.0
2024-09-23 18:00:00+00:00,0.0
2024-09-23 19:00:00+00:00,0.0
2024-09-24 13:00:00+00:00,0.0
2024-09-24 14:00:00+00:00,0.0
2024-09-24 15:00:00+00:00,0.0
2024-09-24 16:00:00+00:00,0.0
2024-09-24 17:00:00+00:00,0.0
2024-09-24 18:00:00+00:00,0.0
2024-09-24 19:00:00+00:00,0.0
2024-09-25 13:00:00+00:00,0.0
2024-09-25 14:00:00+00:00,0.0
2024-09-25 15:00:00+00:00,0.0
2024-09-25 16:00:00+00:00,0.0
2024-09-25 17:00:00+00:00,0.0
2024-09-25 18:00:00+00:00,0.0
2024-09-25 19:00:00+00:00,0.0
2024-09-26 13:00:00+00:00,0.0
2024-09-26 14:00:00+00:00,0.0
2024-09-26 15:00:00+00:00,0.0
2024-09-26 16:00:00+00:00,0.0
2024-09-26 17:00:00+00:00,0.0
2024-09-26 18:00:00+00:00,0.0
2024-09-26 19:00:00+00:00,0.0
2024-09-27 13:00:00+00:00,0.0
2024-09-27 14:00:00+00:00,0.0
2024-09-27 15:00:00+00:00,0.0
2024-09-27 16:00:00+00:00,0.0
2024-09-27 17:00:00+00:00,0.0
2024-09-27 18:00:00+00:00,0.0
2024-09-27 19:00:00+00:00,0.0
2024-09-30 13:00:00+00:00,0.0
2024-09-30 14:00:00+00:00,0.0
2024-09-30 15:00:00+00:00,0.0
2024-09-30 16:00:00+00:00,0.0
2024-09-30 17:00:00+00:00,0.0
2024-09-30 18:00:00+00:00,0.0
2024-09-30 19:00:00+00:00,0.0
2024-10-01 13:00:00+00:00,0.0
2024-10-01 14:00:00+00:00,0.0
2024-10-01 15:00:00+00:00,0.0
2024-10-01 16:00:00+00:00,0.0
2024-10-01 17:00:00+00:00,0.0
2024-10-01 18:00:00+00:00,0.0
2024-10-01 19:00:00+00:00,0.0
2024-10-02 13:00:00+00:00,0.0
2024-10-02 14:00:00+00:00,0.0
2024-10-02 15:00:00+00:00,0.0
2024-10-02 16:00:00+00:00,0.0
2024-10-02 17:00:00+00:00,0.0
2024-10-02 18:00:00+00:00,0.0
2024-10-02 19:00:00+00:00,0.0
2024-10-03 13:00:00+00:00,0.0
2024-10-03 14:00:00+00:00,0.0
2024-10-03 15:00:00+00:00,0.0
2024-10-03 16:00:00+00:00,0.0
2024-10-03 17:00:00+00:00,0.0
2024-10-03 18:00:00+00:00,0.0
2024-10-03 19:00:00+00:00,0.0
2024-10-04 13:00:00+00:00,0.0
2024-10-04 14:00:00+00:00,0.0
2024-10-04 15:00:00+00:00,0.0
2024-10-04 16:00:00+00:00,0.0
2024-10-04 17:00:00+00:00,0.0
2024-10-04 18:00:00+00:00,0.0
2024-10-04 19:00:00+00:00,0.0
2024-10-07 13:00:00+00:00,0.0
2024-10-07 14:00:00+00:00,0.0
2024-10-07 15:00:00+00:00,0.0
2024-10-07 16:00:00+00:00,0.0
2024-10-07 17:00:00+00:00,0.0
2024-10-07 18:00:00+00:00,0.0
2024-10-07 19:00:00+00:00,0.0
2024-10-08 13:00:00+00:00,0.0
2024-10-08 14:00:00+00:00,0.0
2024-10-08 15:00:00+00:00,0.0
2024-10-08 16:00:00+00:00,0.0
2024-10-08 17:00:00+00:00,0.0
2024-10-08 18:00:00+00:00,0.0
2024-10-08 19:00:00+00:00,0.0
2024-10-09 13:00:00+00:00,0.0
2024-10-09 14:00:00+00:00,0.0
2024-10-09 15:00:00+00:00,0.0
2024-10-09 16:00:00+00:00,0.0
2024-10-09 17:00:00+00:00,0.0
2024-10-09 18:00:00+00:00,0.0
2024-10-09 19:00:00+00:00,0.0
2024-10-10 13:00:00+00:00,0.0
2024-10-10 14:00:00+00:00,0.0
2024-10-10 15:00:00+00:00,0.0
2024-10-10 16:00:00+00:00,0.0
2024-10-10 17:00:00+00:00,0.0
2024-10-10 18:00:00+00:00,0.0
2024-10-10 19:00:00+00:00,0.0
2024-10-11 13:00:00+00:00,0.0
2024-10-11 14:00:00+00:00,0.0
2024-10-11 15:00:00+00:00,0.0
2024-10-11 16:00:00+00:00,0.0
2024-10-11 17:00:00+00:00,0.0
2024-10-11 18:00:00+00:00,0.0
2024-10-11 19:00:00+00:00,0.0
2024-10-14 13:00:00+00:00,0.0
2024-10-14 14:00:00+00:00,0.0
2024-10-14 15:00:00+00:00,0.0
2024-10-14 16:00:00+00:00,0.0
2024-10-14 17:00:00+00:00,0.0
2024-10-14 18:00:00+00:00,0.0
2024-10-14 19:00:00+00:00,0.0
2024-10-15 13:00:00+00:00,0.0
2024-10-15 14:00:00+00:00,0.0
2024-10-15 15:00:00+00:00,0.0
2024-10-15 16:00:00+00:00,0.0
2024-10-15 17:00:00+00:00,0.0
2024-10-15 18:00:00+00:00,0.0
2024-10-15 19:00:00+00:00,0.0
2024-10-16 13:00:00+00:00,0.0
2024-10-16 14:00:00+00:00,0.0
2024-10-16 15:00:00+00:00,0.0
2024-10-16 16:00:00+00:00,0.0
2024-10-16 17:00:00+00:00,0.0
2024-10-16 18:00:00+00:00,0.0
2024-10-16 19:00:00+00:00,0.0
2024-10-17 13:00:00+00:00,0.0
2024-10-17 14:00:00+00:00,0.0
2024-10-17 15:00:00+00:00,0.0
2024-10-17 16:00:00+00:00,0.0
2024-10-17 17:00:00+00:00,0.0
2024-10-17 18:00:00+00:00,0.0
2024-10-17 19:00:00+00:00,0.0
2024-10-18 13:00:00+00:00,0.0
2024-10-18 14:00:00+00:00,0.0
2024-10-18 15:00:00+00:00,0.0
2024-10-18 16:00:00+00:00,0.0
2024-10-18 17:00:00+00:00,0.0
2024-10-18 18:00:00+00:00,0.0
2024-10-18 19:00:00+00:00,0.0
2024-10-21 13:00:00+00:00,0.0
2024-10-21 14:00:00+00:00,0.0
2024-10-21 15:00:00+00:00,0.0
2024-10-21 16:00:00+00:00,0.0
2024-10-21 17:00:00+00:00,0.0
2024-10-21 18:00:00+00:00,0.0
2024-10-21 19:00:00+00:00,0.0
2024-10-22 13:00:00+00:00,0.0
2024-10-22 14:00:00+00:00,0.0
2024-10-22 15:00:00+00:00,0.0
2024-10-22 16:00:00+00:00,0.0
2024-10-22 17:00:00+00:00,0.0
2024-10-22 18:00:00+00:00,0.0
2024-10-22 19:00:00+00:00,0.0
2024-10-23 13:00:00+00:00,0.0
2024-10-23 14:00:00+00:00,0.0
2024-10-23 15:00:00+00:00,0.0
2024-10-23 16:00:00+00:00,0.0
2024-10-23 17:00:00+00:00,0.0
2024-10-23 18:00:00+00:00,0.0
2024-10-23 19:00:00+00:00,0.0
2024-10-24 13:00:00+00:00,0.0
2024-10-24 14:00:00+00:00,0.0
2024-10-24 15:00:00+00:00,0.0
2024-10-24 16:00:00+00:00,0.0
2024-10-24 17:00:00+00:00,0.0
2024-10-24 18:00:00+00:00,0.0
2024-10-24 19:00:00+00:00,0.0
2024-10-25 13:00:00+00:00,0.0
2024-10-25 14:00:00+00:00,0.0
2024-10-25 15:00:00+00:00,0.0
2024-10-25 16:00:00+00:00,0.0
2024-10-25 17:00:00+00:00,0.0
2024-10-25 18:00:00+00:00,0.0
2024-10-25 19:00:00+00:00,0.0
2024-10-28 13:00:00+00:00,0.0
2024-10-28 14:00:00+00:00,0.0
2024-10-28 15:00:00+00:00,0.0
2024-10-28 16:00:00+00:00,0.0
2024-10-28 17:00:00+00:00,0.0
2024-10-28 18:00:00+00:00,0.0
2024-10-28 19:00:00+00:00,0.0
2024-10-29 13:00:00+00:00,0.0
2024-10-29 14:00:00+00:00,0.0
2024-10-29 15:00:00+00:00,0.0
2024-10-29 16:00:00+00:00,0.0
2024-10-29 17:00:00+00:00,0.0
2024-10-29 18:00:00+00:00,0.0
2024-10-29 19:00:00+00:00,0.0
2024-10-30 13:00:00+00:00,0.0
2024-10-30 14:00:00+00:00,0.0
2024-10-30 15:00:00+00:00,0.0
2024-10-30 16:00:00+00:00,0.0
2024-10-30 17:00:00+00:00,0.0
2024-10-30 18:00:00+00:00,0.0
2024-10-30 19:00:00+00:00,0.0
2024-10-31 13:00:00+00:00,0.0
2024-10-31 14:00:00+00:00,0.0
2024-10-31 15:00:00+00:00,0.0
2024-10-31 16:00:00+00:00,0.0
2024-10-31 17:00:00+00:00,0.0
2024-10-31 18:00:00+00:00,0.0
2024-10-31 19:00:00+00:00,0.0
2024-11-01 13:00:00+00:00,0.0
2024-11-01 14:00:00+00:00,0.0
2024-11-01 15:00:00+00:00,0.0
2024-11-01 16:00:00+00:00,0.0
2024-11-01 17:00:00+00:00,0.0
2024-11-01 18:00:00+00:00,0.0
2024-11-01 19:00:00+00:00,0.0
2024-11-04 14:00:00+00:00,0.0
2024-11-04 15:00:00+00:00,0.0
2024-11-04 16:00:00+00:00,0.0
2024-11-04 17:00:00+00:00,0.0
2024-11-04 18:00:00+00:00,0.0
2024-11-04 19:00:00+00:00,0.0
2024-11-04 20:00:00+00:00,0.0
2024-11-05 14:00:00+00:00,0.0
2024-11-05 15:00:00+00:00,0.0
2024-11-05 16:00:00+00:00,0.0
2024-11-05 17:00:00+00:00,0.0
2024-11-05 18:00:00+00:00,0.0
2024-11-05 19:00:00+00:00,0.0
2024-11-05 20:00:00+00:00,0.0
2024-11-06 14:00:00+00:00,0.0
2024-11-06 15:00:00+00:00,0.0
2024-11-06 16:00:00+00:00,0.0
2024-11-06 17:00:00+00:00,0.0
2024-11-06 18:00:00+00:00,0.0
2024-11-06 19:00:00+00:00,0.0
2024-11-06 20:00:00+00:00,0.0
2024-11-07 14:00:00+00:00,0.0
2024-11-07 15:00:00+00:00,0.0
2024-11-07 16:00:00+00:00,0.0
2024-11-07 17:00:00+00:00,0.0
2024-11-07 18:00:00+00:00,0.0
2024-11-07 19:00:00+00:00,0.0
2024-11-07 20:00:00+00:00,0.0
2024-11-08 14:00:00+00:00,0.0
2024-11-08 15:00:00+00:00,0.0
2024-11-08 16:00:00+00:00,0.0
2024-11-08 17:00:00+00:00,0.0
2024-11-08 18:00:00+00:00,0.0
2024-11-08 19:00:00+00:00,0.0
2024-11-08 20:00:00+00:00,0.0
2024-11-11 14:00:00+00:00,0.0
2024-11-11 15:00:00+00:00,0.0
2024-11-11 16:00:00+00:00,0.0
2024-11-11 17:00:00+00:00,0.0
2024-11-11 18:00:00+00:00,0.0
2024-11-11 19:00:00+00:00,0.0
2024-11-11 20:00:00+00:00,0.0
2024-11-12 14:00:00+00:00,0.0
2024-11-12 15:00:00+00:00,0.0
2024-11-12 16:00:00+00:00,0.0
2024-11-12 17:00:00+00:00,0.0
2024-11-12 18:00:00+00:00,0.0
2024-11-12 19:00:00+00:00,0.0
2024-11-12 20:00:00+00:00,0.0
2024-11-13 14:00:00+00:00,0.0
2024-11-13 15:00:00+00:00,0.0
2024-11-13 16:00:00+00:00,0.0
2024-11-13 17:00:00+00:00,0.0
2024-11-13 18:00:00+00:00,0.0
2024-11-13 19:00:00+00:00,0.0
2024-11-13 20:00:00+00:00,0.0
2024-11-14 14:00:00+00:00,0.0
2024-11-14 15:00:00+00:00,0.0
2024-11-14 16:00:00+00:00,0.0
2024-11-14 17:00:00+00:00,0.0
2024-11-14 18:00:00+00:00,0.0
2024-11-14 19:00:00+00:00,0.0
2024-11-14 20:00:00+00:00,0.0
2024-11-15 14:00:00+00:00,0.0
2024-11-15 15:00:00+00:00,0.0
2024-11-15 16:00:00+00:00,0.0
2024-11-15 17:00:00+00:00,0.0
2024-11-15 18:00:00+00:00,0.0
2024-11-15 19:00:00+00:00,0.0
2024-11-15 20:00:00+00:00,0.0
2024-11-18 14:00:00+00:00,0.0
2024-11-18 15:00:00+00:00,0.0
2024-11-18 16:00:00+00:00,0.0
2024-11-18 17:00:00+00:00,0.0
2024-11-18 18:00:00+00:00,0.0
2024-11-18 19:00:00+00:00,0.0
2024-11-18 20:00:00+00:00,0.0
2024-11-19 14:00:00+00:00,0.0
2024-11-19 15:00:00+00:00,0.0
2024-11-19 16:00:00+00:00,0.0
2024-11-19 17:00:00+00:00,0.0
2024-11-19 18:00:00+00:00,0.0
2024-11-19 19:00:00+00:00,0.0
2024-11-19 20:00:00+00:00,0.0
2024-11-20 14:00:00+00:00,0.0
2024-11-20 15:00:00+00:00,0.0
2024-11-20 16:00:00+00:00,0.0
2024-11-20 17:00:00+00:00,0.0
2024-11-20 18:00:00+00:00,0.0
2024-11-20 19:00:00+00:00,0.0
2024-11-20 20:00:00+00:00,0.0
2024-11-21 14:00:00+00:00,0.0
2024-11-21 15:00:00+00:00,0.0
2024-11-21 16:00:00+00:00,0.0
2024-11-21 17:00:00+00:00,0.0
2024-11-21 18:00:00+00:00,0.0
2024-11-21 19:00:00+00:00,0.0
2024-11-21 20:00:00+00:00,0.0
2024-11-22 14:00:00+00:00,0.0
2024-11-22 15:00:00+00:00,0.0
2024-11-22 16:00:00+00:00,0.0
2024-11-22 17:00:00+00:00,0.0
2024-11-22 18:00:00+00:00,0.0
2024-11-22 19:00:00+00:00,0.0
2024-11-22 20:00:00+00:00,0.0
2024-11-25 14:00:00+00:00,0.0
2024-11-25 15:00:00+00:00,0.0
2024-11-25 16:00:00+00:00,0.0
2024-11-25 17:00:00+00:00,0.0
2024-11-25 18:00:00+00:00,0.0
2024-11-25 19:00:00+00:00,0.0
2024-11-25 20:00:00+00:00,0.0
2024-11-26 14:00:00+00:00,0.0
2024-11-26 15:00:00+00:00,0.0
2024-11-26 16:00:00+00:00,0.0
2024-11-26 17:00:00+00:00,0.0
2024-11-26 18:00:00+00:00,0.0
2024-11-26 19:00:00+00:00,0.0
2024-11-26 20:00:00+00:00,0.0
2024-11-27 14:00:00+00:00,0.0
2024-11-27 15:00:00+00:00,0.0
2024-11-27 16:00:00+00:00,0.0
2024-11-27 17:00:00+00:00,0.0
2024-11-27 18:00:00+00:00,0.0
2024-11-27 19:00:00+00:00,0.0
2024-11-27 20:00:00+00:00,0.0
2024-11-29 14:00:00+00:00,0.0
2024-11-29 15:00:00+00:00,0.0
2024-11-29 16:00:00+00:00,0.0
2024-12-02 14:00:00+00:00,0.0
2024-12-02 15:00:00+00:00,-11.573143688481379
2024-12-02 16:00:00+00:00,-15.096865856456876
2024-12-02 17:00:00+00:00,4.1631983070831104
2024-12-02 18:00:00+00:00,5.9603031795712464
2024-12-02 19:00:00+00:00,6.3334593470179215
2024-12-02 20:00:00+00:00,-6.688040637833863
2024-12-03 14:00:00+00:00,-52.043680806894166
2024-12-03 15:00:00+00:00,-56.98055875888193
2024-12-03 16:00:00+00:00,-73.72639663695098
2024-12-03 17:00:00+00:00,-72.93376250552922
2024-12-03 18:00:00+00:00,-56.681564298929345
2024-12-03 19:00:00+00:00,-76.56930137314978
2024-12-03 20:00:00+00:00,-78.05861935230384
2024-12-04 14:00:00+00:00,-95.998662534652
2024-12-04 15:00:00+00:00,-79.09885909100784
2024-12-04 16:00:00+00:00,-75.09693570414606
2024-12-04 17:00:00+00:00,-50.80675176560493
2024-12-04 18:00:00+00:00,-57.47621752680806
2024-12-04 19:00:00+00:00,-71.86407889819026
2024-12-04 20:00:00+00:00,-78.83917296852164
2024-12-05 14:00:00+00:00,-100.7964634971773
2024-12-05 15:00:00+00:00,-138.70887912666117
2024-12-05 16:00:00+00:00,-137.55437637828254
2024-12-05 17:00:00+00:00,-129.11583399326506
2024-12-05 18:00:00+00:00,-153.79854722949267
2024-12-05 19:00:00+00:00,-174.22519065635095
2024-12-05 20:00:00+00:00,-167.15304283348402
2024-12-06 14:00:00+00:00,-174.42104368108335
2024-12-06 15:00:00+00:00,-186.91489437523563
2024-12-06 16:00:00+00:00,-156.84044512445354
2024-12-06 17:00:00+00:00,-139.23499513311322
2024-12-06 18:00:00+00:00,-131.85247572728616
2024-12-06 19:00:00+00:00,-138.79560716156814
2024-12-06 20:00:00+00:00,-126.9559955536326
2024-12-09 14:00:00+00:00,-319.02654809400656
2024-12-09 15:00:00+00:00,-293.35774137886375
2024-12-09 16:00:00+00:00,-252.525615368792
2024-12-09 17:00:00+00:00,-220.5266293879298
2024-12-09 18:00:00+00:00,-235.32450078443316
2024-12-09 19:00:00+00:00,-235.35386713546546
2024-12-09 20:00:00+00:00,-226.6447323813868
2024-12-10 14:00:00+00:00,-144.1661984669597
2024-12-10 15:00:00+00:00,-149.75665216971694
2024-12-10 16:00:00+00:00,-134.30373626197527
2024-12-10 17:00:00+00:00,-141.7517083659299
2024-12-10 18:00:00+00:00,-147.664563961336
2024-12-10 19:00:00+00:00,-152.2254638262248
2024-12-10 20:00:00+00:00,-136.59350354665293
2024-12-11 14:00:00+00:00,-48.61047071662547
2024-12-11 15:00:00+00:00,-72.9102891506214
2024-12-11 16:00:00+00:00,-80.8387647149172
2024-12-11 17:00:00+00:00,-97.13459857616138
2024-12-11 18:00:00+00:00,-111.03331785983366
2024-12-11 19:00:00+00:00,-109.48028395188402
2024-12-11 20:00:00+00:00,-104.34527722200073
2024-12-12 14:00:00+00:00,-54.28573110011088
2024-12-12 15:00:00+00:00,-29.441183747541398
2024-12-12 16:00:00+00:00,-54.681937409156234
2024-12-12 17:00:00+00:00,-38.980438634854266
2024-12-12 18:00:00+00:00,-27.468842142199605
2024-12-12 19:00:00+00:00,-25.983336092568003
2024-12-12 20:00:00+00:00,-32.54394487280935
2024-12-13 14:00:00+00:00,-21.23125724998318
2024-12-13 15:00:00+00:00,-48.84259868657017
2024-12-13 16:00:00+00:00,-46.85646379233645
2024-12-13 17:00:00+00:00,-37.98407467293164
2024-12-13 18:00:00+00:00,-43.01594953579134
2024-12-13 19:00:00+00:00,-42.81068574315916
2024-12-13 20:00:00+00:00,-26.016525968513797
2024-12-16 14:00:00+00:00,80.35837808505758
2024-12-16 15:00:00+00:00,82.74006221057243
2024-12-16 16:00:00+00:00,100.16636110131685
2024-12-16 17:00:00+00:00,147.48204455716638
2024-12-16 18:00:00+00:00,154.76657886614723
2024-12-16 19:00:00+00:00,156.15302052683091
2024-12-16 20:00:00+00:00,161.50206708814594
2024-12-17 14:00:00+00:00,111.62470130261386
2024-12-17 15:00:00+00:00,122.80248817001554
2024-12-17 16:00:00+00:00,117.49847708167768
2024-12-17 17:00:00+00:00,97.64890250747078
2024-12-17 18:00:00+00:00,83.96556253427099
2024-12-17 19:00:00+00:00,99.78567777587278
2024-12-17 20:00:00+00:00,126.09946283344247
2024-12-18 14:00:00+00:00,70.44705930352832
2024-12-18 15:00:00+00:00,60.12699068216884
2024-12-18 16:00:00+00:00,38.35387726754034
2024-12-18 17:00:00+00:00,50.74678859305534
2024-12-18 18:00:00+00:00,69.82737254190981
2024-12-18 19:00:00+00:00,134.849728962253
2024-12-18 20:00:00+00:00,131.23408149339411
2024-12-19 14:00:00+00:00,111.04518122624967
2024-12-19 15:00:00+00:00,100.86279636686461
2024-12-19 16:00:00+00:00,86.82708783527353
2024-12-19 17:00:00+00:00,117.65555427141865
2024-12-19 18:00:00+00:00,94.80436414291667
2024-12-19 19:00:00+00:00,104.49185948186606
2024-12-19 20:00:00+00:00,110.3530982724894
2024-12-20 14:00:00+00:00,122.31170659573347
2024-12-20 15:00:00+00:00,80.0631447203528
2024-12-20 16:00:00+00:00,47.32496502475085
2024-12-20 17:00:00+00:00,54.78488401437926
2024-12-20 18:00:00+00:00,35.013280808213956
2024-12-20 19:00:00+00:00,43.91125826330844
2024-12-20 20:00:00+00:00,55.47627285385719
2024-12-23 14:00:00+00:00,106.77313608696878
2024-12-23 15:00:00+00:00,107.38971003226972
2024-12-23 16:00:00+00:00,66.52578852446374
2024-12-23 17:00:00+00:00,60.10139388643176
2024-12-23 18:00:00+00:00,67.54817666493285
2024-12-23 19:00:00+00:00,92.00260811401432
2024-12-23 20:00:00+00:00,62.84942577308972
2024-12-24 14:00:00+00:00,86.1654210702518
2024-12-24 15:00:00+00:00,97.51364759629486
2024-12-24 16:00:00+00:00,70.91712627463934
2024-12-26 14:00:00+00:00,10.943464505928034
2024-12-26 15:00:00+00:00,-10.36109233403522
2024-12-26 16:00:00+00:00,-7.807377295749403
2024-12-26 17:00:00+00:00,16.75725571238746
2024-12-26 18:00:00+00:00,34.88057255117579
2024-12-26 19:00:00+00:00,37.61017750899734
2024-12-26 20:00:00+00:00,55.08588911074475
2024-12-27 14:00:00+00:00,15.114791910944334
2024-12-27 15:00:00+00:00,-10.388459644045845
2024-12-27 16:00:00+00:00,36.914619448901504
2024-12-27 17:00:00+00:00,41.631058983172764
2024-12-27 18:00:00+00:00,38.35364700357284
2024-12-27 19:00:00+00:00,44.02161049303058
2024-12-27 20:00:00+00:00,33.81401690783967
2024-12-30 14:00:00+00:00,42.34258229664938
2024-12-30 15:00:00+00:00,50.35341649473311
2024-12-30 16:00:00+00:00,46.8212591844724
2024-12-30 17:00:00+00:00,26.545898891282498
2024-12-30 18:00:00+00:00,30.28981912460949
2024-12-30 19:00:00+00:00,26.563626706915798
2024-12-30 20:00:00+00:00,43.2316625034948
2024-12-31 14:00:00+00:00,74.13338335852416
2024-12-31 15:00:00+00:00,87.93823296558988
2024-12-31 16:00:00+00:00,82.1206298296095
2024-12-31 17:00:00+00:00,90.43965870791958
2024-12-31 18:00:00+00:00,84.81076835340653
2024-12-31 19:00:00+00:00,45.01088661363455
2024-12-31 20:00:00+00:00,80.80437985033836
2025-01-02 14:00:00+00:00,55.27927750692152
2025-01-02 15:00:00+00:00,61.961495578820596
2025-01-02 16:00:00+00:00,35.66463205256626
2025-01-02 17:00:00+00:00,42.831675043761706
2025-01-02 18:00:00+00:00,48.74402540027886
2025-01-02 19:00:00+00:00,64.0761799366567
2025-01-02 20:00:00+00:00,51.330782366716306
2025-01-03 14:00:00+00:00,16.877987798592045
2025-01-03 15:00:00+00:00,9.768986118050634
2025-01-03 16:00:00+00:00,-6.933193786586298
2025-01-03 17:00:00+00:00,11.35722053835908
2025-01-03 18:00:00+00:00,31.484058222023606
2025-01-03 19:00:00+00:00,29.771550686961803
2025-01-03 20:00:00+00:00,30.64198818881501
2025-01-06 14:00:00+00:00,-89.09766379007903
2025-01-06 15:00:00+00:00,-115.19666411471212
2025-01-06 16:00:00+00:00,-123.82817365035244
2025-01-06 17:00:00+00:00,-113.92837468029138
2025-01-06 18:00:00+00:00,-118.92232699010465
2025-01-06 19:00:00+00:00,-104.95341602501739
2025-01-06 20:00:00+00:00,-113.78933089663343
2025-01-07 14:00:00+00:00,-168.68478211734012
2025-01-07 15:00:00+00:00,-145.3703257022348
2025-01-07 16:00:00+00:00,-153.79623054872968
2025-01-07 17:00:00+00:00,-167.63705646954114
2025-01-07 18:00:00+00:00,-156.950742688876
2025-01-07 19:00:00+00:00,-141.463001588116
2025-01-07 20:00:00+00:00,-154.59401174061256
2025-01-08 14:00:00+00:00,-74.39459584708204
2025-01-08 15:00:00+00:00,-82.53530994969799
2025-01-08 16:00:00+00:00,-80.96916643995544
2025-01-08 17:00:00+00:00,-87.8991194581213
2025-01-08 18:00:00+00:00,-93.6916061823159
2025-01-08 19:00:00+00:00,-105.21205074212523
2025-01-08 20:00:00+00:00,-110.7661558260975
2025-01-10 14:00:00+00:00,-99.44313385635877
2025-01-10 15:00:00+00:00,-26.951092463707795
2025-01-10 16:00:00+00:00,-67.42112434323107
2025-01-10 17:00:00+00:00,-80.89044744191219
2025-01-10 18:00:00+00:00,-72.16253734041838
2025-01-10 19:00:00+00:00,-44.95511669160237
2025-01-10 20:00:00+00:00,-35.56649175127486
2025-01-13 14:00:00+00:00,-40.22606793517938
2025-01-13 15:00:00+00:00,-11.230183304596807
2025-01-13 16:00:00+00:00,11.369789757885457
2025-01-13 17:00:00+00:00,25.272030812667094
2025-01-13 18:00:00+00:00,20.48748166255335
2025-01-13 19:00:00+00:00,14.9299183452885
2025-01-13 20:00:00+00:00,9.397448152543934
2025-01-14 14:00:00+00:00,-11.247047035267688
2025-01-14 15:00:00+00:00,-28.40624870633408
2025-01-14 16:00:00+00:00,-17.555960991926867
2025-01-14 17:00:00+00:00,-41.95529780701584
2025-01-14 18:00:00+00:00,-61.825581501699176
2025-01-14 19:00:00+00:00,-67.1992471399522
2025-01-14 20:00:00+00:00,-63.5965142478473
2025-01-15 14:00:00+00:00,-93.38225672081595
2025-01-15 15:00:00+00:00,-78.42050582826613
2025-01-15 16:00:00+00:00,-55.536817215227465
2025-01-15 17:00:00+00:00,-70.92834819320046
2025-01-15 18:00:00+00:00,-80.01662122384512
2025-01-15 19:00:00+00:00,-89.6899316691618
2025-01-15 20:00:00+00:00,-61.678907262528384
2025-01-16 14:00:00+00:00,-213.2807853731077
2025-01-16 15:00:00+00:00,-236.7954269781263
2025-01-16 16:00:00+00:00,-290.225401497911
2025-01-16 17:00:00+00:00,-295.2160548388876
2025-01-16 18:00:00+00:00,-270.9897124581468
2025-01-16 19:00:00+00:00,-266.3957323511988
2025-01-16 20:00:00+00:00,-215.40225152791396
2025-01-17 14:00:00+00:00,-287.7390663701501
2025-01-17 15:00:00+00:00,-261.9165819844962
2025-01-17 16:00:00+00:00,-240.80774825002644
2025-01-17 17:00:00+00:00,-266.2959787072163
2025-01-17 18:00:00+00:00,-265.2005503563455
2025-01-17 19:00:00+00:00,-284.6938925633941
2025-01-17 20:00:00+00:00,-305.027294167239
2025-01-21 14:00:00+00:00,-251.48839756100432
2025-01-21 15:00:00+00:00,-245.70504956509106
2025-01-21 16:00:00+00:00,-290.82093593802523
2025-01-21 17:00:00+00:00,-294.66454412334804
2025-01-21 18:00:00+00:00,-304.16799655836627
2025-01-21 19:00:00+00:00,-291.7879434860835
2025-01-21 20:00:00+00:00,-266.65487716644395
2025-01-22 14:00:00+00:00,-207.31816551277348
2025-01-22 15:00:00+00:00,-209.35041111739002
2025-01-22 16:00:00+00:00,-209.96116249675703
2025-01-22 17:00:00+00:00,-200.7763409524663
2025-01-22 18:00:00+00:00,-188.20200074599714
2025-01-22 19:00:00+00:00,-177.91841080233783
2025-01-22 20:00:00+00:00,-171.8955731582623
2025-01-23 14:00:00+00:00,-256.89027413901715
2025-01-23 15:00:00+00:00,-224.65057513099413
2025-01-23 16:00:00+00:00,-234.9187259021424
2025-01-23 17:00:00+00:00,-256.7554072977743
2025-01-23 18:00:00+00:00,-266.4475019630233
2025-01-23 19:00:00+00:00,-269.84853224265464
2025-01-23 20:00:00+00:00,-258.9543930974488
2025-01-24 14:00:00+00:00,-254.3823841184167
2025-01-24 15:00:00+00:00,-274.70288546377185
2025-01-24 16:00:00+00:00,-297.4455007692012
2025-01-24 17:00:00+00:00,-269.12005562005896
2025-01-24 18:00:00+00:00,-292.2134402867821
2025-01-24 19:00:00+00:00,-296.2408762944176
2025-01-24 20:00:00+00:00,-297.0613935841681
2025-01-27 14:00:00+00:00,-274.3415405252754
2025-01-27 15:00:00+00:00,-260.0349004046539
2025-01-27 16:00:00+00:00,-283.78401940635234
2025-01-27 17:00:00+00:00,-315.6695353422541
2025-01-27 18:00:00+00:00,-318.52533673614516
2025-01-27 19:00:00+00:00,-327.26026389749757
2025-01-27 20:00:00+00:00,-322.32122736130395
2025-01-28 14:00:00+00:00,-257.76079366645166
2025-01-28 15:00:00+00:00,-258.7339595389814
2025-01-28 16:00:00+00:00,-241.90600112206832
2025-01-28 17:00:00+00:00,-252.565587041707
2025-01-28 18:00:00+00:00,-237.54272479618606
2025-01-28 19:00:00+00:00,-254.91307382779732
2025-01-28 20:00:00+00:00,-256.0667130602271
2025-01-29 14:00:00+00:00,-251.8156523912452
2025-01-29 15:00:00+00:00,-235.43863416484035
2025-01-29 16:00:00+00:00,-247.37731016172407
2025-01-29 17:00:00+00:00,-252.88763164326014
2025-01-29 18:00:00+00:00,-212.08907940956618
2025-01-29 19:00:00+00:00,-250.78540370053327
2025-01-29 20:00:00+00:00,-233.4706097279105
2025-01-30 14:00:00+00:00,-317.679026700858
2025-01-30 15:00:00+00:00,-293.16219856798295
2025-01-30 16:00:00+00:00,-312.62169915903036
2025-01-30 17:00:00+00:00,-339.39395085703745
2025-01-30 18:00:00+00:00,-353.08670589711636
2025-01-30 19:00:00+00:00,-358.7155723651678
2025-01-30 20:00:00+00:00,-336.2329390778117
2025-01-31 14:00:00+00:00,-354.4035936366532
2025-01-31 15:00:00+00:00,-370.27565769860223
2025-01-31 16:00:00+00:00,-390.6970247260154
2025-01-31 17:00:00+00:00,-366.4337028585958
2025-01-31 18:00:00+00:00,-321.34818444195514
2025-01-31 19:00:00+00:00,-313.851768885748
2025-01-31 20:00:00+00:00,-320.345849966304
2025-02-03 14:00:00+00:00,-266.1343625992679
2025-02-03 15:00:00+00:00,-260.70467857784246
2025-02-03 16:00:00+00:00,-251.85615934332395
2025-02-03 17:00:00+00:00,-240.9841869375704
2025-02-03 18:00:00+00:00,-269.31560260044034
2025-02-03 19:00:00+00:00,-248.86521491769983
2025-02-03 20:00:00+00:00,-243.97347801787788
2025-02-04 14:00:00+00:00,-386.7309139402129
2025-02-04 15:00:00+00:00,-449.2438850911968
2025-02-04 16:00:00+00:00,-417.32934849996644
2025-02-04 17:00:00+00:00,-425.1773345519439
2025-02-04 18:00:00+00:00,-430.5884436967386
2025-02-04 19:00:00+00:00,-410.0959257568792
2025-02-04 20:00:00+00:00,-426.50508171528963
2025-02-05 14:00:00+00:00,-580.0985294945249
2025-02-05 15:00:00+00:00,-592.7717247466388
2025-02-05 16:00:00+00:00,-557.791280887816
2025-02-05 17:00:00+00:00,-582.3117730024197
2025-02-05 18:00:00+00:00,-601.3372118214854
2025-02-05 19:00:00+00:00,-628.7628415223511
2025-02-05 20:00:00+00:00,-591.1292609451971
2025-02-06 14:00:00+00:00,-686.6646433046285
2025-02-06 15:00:00+00:00,-703.3046126779914
2025-02-06 16:00:00+00:00,-658.1435852528926
2025-02-06 17:00:00+00:00,-684.9873362819252
2025-02-06 18:00:00+00:00,-677.8861678037306
2025-02-06 19:00:00+00:00,-670.2344717274923
2025-02-06 20:00:00+00:00,-684.8512700875091
2025-02-07 14:00:00+00:00,-692.0808809010755
2025-02-07 15:00:00+00:00,-666.9677070448457
2025-02-07 16:00:00+00:00,-665.7050332600262
2025-02-07 17:00:00+00:00,-684.6972822031461
2025-02-07 18:00:00+00:00,-691.4511973539808
2025-02-07 19:00:00+00:00,-677.6658001674757
2025-02-07 20:00:00+00:00,-673.9998831947988
2025-02-10 14:00:00+00:00,-603.2645704712187
2025-02-10 15:00:00+00:00,-588.2562618295038
2025-02-10 16:00:00+00:00,-587.3158419895394
2025-02-10 17:00:00+00:00,-593.623218867353
2025-02-10 18:00:00+00:00,-588.1349585821965
2025-02-10 19:00:00+00:00,-533.393357295904
2025-02-10 20:00:00+00:00,-529.418000084577
2025-02-11 14:00:00+00:00,-592.0927001479255
2025-02-11 15:00:00+00:00,-570.5535179634899
2025-02-11 16:00:00+00:00,-544.3306681969342
2025-02-11 17:00:00+00:00,-580.8528675212744
2025-02-11 18:00:00+00:00,-577.3036211848037
2025-02-11 19:00:00+00:00,-575.8405019413246
2025-02-11 20:00:00+00:00,-588.0164772545417
2025-02-12 14:00:00+00:00,-562.6501031772071
2025-02-12 15:00:00+00:00,-592.963043212083
2025-02-12 16:00:00+00:00,-599.8745157913147
2025-02-12 17:00:00+00:00,-592.3935572964988
2025-02-12 18:00:00+00:00,-579.7649198805351
2025-02-12 19:00:00+00:00,-608.1415444239324
2025-02-12 20:00:00+00:00,-640.7370240759434
2025-02-13 14:00:00+00:00,-661.5116149444428
2025-02-13 15:00:00+00:00,-677.050037505414
2025-02-13 16:00:00+00:00,-679.0513997660831
2025-02-13 17:00:00+00:00,-671.1183059879487
2025-02-13 18:00:00+00:00,-682.4757002540147
2025-02-13 19:00:00+00:00,-662.9022258257448
2025-02-13 20:00:00+00:00,-655.9827185862769
2025-02-14 14:00:00+00:00,-704.5839780207519
2025-02-14 15:00:00+00:00,-726.3569434875867
2025-02-14 16:00:00+00:00,-703.8743102002306
2025-02-14 17:00:00+00:00,-696.3526859182181
2025-02-14 18:00:00+00:00,-683.2691233498864
2025-02-14 19:00:00+00:00,-682.9158995087998
2025-02-14 20:00:00+00:00,-697.8455199313074
2025-02-18 14:00:00+00:00,-741.3941312696884
2025-02-18 15:00:00+00:00,-744.614315884379
2025-02-18 16:00:00+00:00,-740.0971996219276
2025-02-18 17:00:00+00:00,-744.3717093897644
2025-02-18 18:00:00+00:00,-747.2144884969601
2025-02-18 19:00:00+00:00,-726.4652261250521
2025-02-18 20:00:00+00:00,-717.6965612444126
2025-02-19 14:00:00+00:00,-601.3017404081531
2025-02-19 15:00:00+00:00,-554.5203400921779
2025-02-19 16:00:00+00:00,-526.3956362972815
2025-02-19 17:00:00+00:00,-529.8293786952974
2025-02-19 18:00:00+00:00,-537.2012289511434
2025-02-19 19:00:00+00:00,-531.1733979132538
2025-02-19 20:00:00+00:00,-533.1271646419646
2025-02-20 14:00:00+00:00,-576.877648859402
2025-02-20 15:00:00+00:00,-601.9805248847281
2025-02-20 16:00:00+00:00,-616.4303051823424
2025-02-20 17:00:00+00:00,-608.8217113448495
2025-02-20 18:00:00+00:00,-605.2420191353277
2025-02-20 19:00:00+00:00,-602.8341325700902
2025-02-20 20:00:00+00:00,-604.7821329658367
2025-02-21 14:00:00+00:00,-490.66405769626317
2025-02-21 15:00:00+00:00,-494.23105822778626
2025-02-21 16:00:00+00:00,-526.7464056585752
2025-02-21 17:00:00+00:00,-518.289027819267
2025-02-21 18:00:00+00:00,-525.2306837699444
2025-02-21 19:00:00+00:00,-538.9902486675983
2025-02-21 20:00:00+00:00,-530.3146055432695
2025-02-24 14:00:00+00:00,-513.9734826820661
2025-02-24 15:00:00+00:00,-533.3493335713296
2025-02-24 16:00:00+00:00,-539.3881156268056
2025-02-24 17:00:00+00:00,-552.8459558596758
2025-02-24 18:00:00+00:00,-532.5388000687504
2025-02-24 19:00:00+00:00,-533.508449907345
2025-02-24 20:00:00+00:00,-519.6490491099029
2025-02-25 14:00:00+00:00,-543.9294813840297
2025-02-25 15:00:00+00:00,-526.7426245078881
2025-02-25 16:00:00+00:00,-531.8288983227856
2025-02-25 17:00:00+00:00,-540.3915015078353
2025-02-25 18:00:00+00:00,-552.3952423021533
2025-02-25 19:00:00+00:00,-553.5057114674759
2025-02-25 20:00:00+00:00,-539.4734684740237
2025-02-26 14:00:00+00:00,-539.1265110422521
2025-02-26 15:00:00+00:00,-579.8955373817289
2025-02-26 16:00:00+00:00,-597.0224902585956
2025-02-26 17:00:00+00:00,-577.94148478515
2025-02-26 18:00:00+00:00,-560.0732208283654
2025-02-26 19:00:00+00:00,-556.9543393062595
2025-02-26 20:00:00+00:00,-570.1601643529323
2025-02-27 14:00:00+00:00,-515.5673917205156
2025-02-27 15:00:00+00:00,-482.77975380433674
2025-02-27 16:00:00+00:00,-525.6469002614313
2025-02-27 17:00:00+00:00,-549.1637004506547
2025-02-27 18:00:00+00:00,-529.9096068008428
2025-02-27 19:00:00+00:00,-503.6220818744572
2025-02-27 20:00:00+00:00,-494.73886736647006
2025-02-28 14:00:00+00:00,-609.6954716407046
2025-02-28 15:00:00+00:00,-606.2417932063494
2025-02-28 16:00:00+00:00,-599.908481807125
2025-02-28 17:00:00+00:00,-563.9462377389478
2025-02-28 18:00:00+00:00,-574.6158955645712
2025-02-28 19:00:00+00:00,-603.2540992383875
2025-02-28 20:00:00+00:00,-583.7393856891899
2025-03-03 14:00:00+00:00,-802.4782386557378
2025-03-03 15:00:00+00:00,-761.4556548040592
2025-03-03 16:00:00+00:00,-759.1152854829236
2025-03-03 17:00:00+00:00,-673.6573351057841
2025-03-03 18:00:00+00:00,-681.075777024976
2025-03-03 19:00:00+00:00,-633.8423843745529
2025-03-03 20:00:00+00:00,-668.8558701615295
2025-03-04 14:00:00+00:00,-604.421362926747
2025-03-04 15:00:00+00:00,-647.952436475611
2025-03-04 16:00:00+00:00,-644.069805820689
2025-03-04 17:00:00+00:00,-637.1666304636673
2025-03-04 18:00:00+00:00,-659.854322273681
2025-03-04 19:00:00+00:00,-680.8436163090581
2025-03-04 20:00:00+00:00,-640.1233848547121
2025-03-05 14:00:00+00:00,-759.9215838426725
2025-03-05 15:00:00+00:00,-747.1717110077632
2025-03-05 16:00:00+00:00,-787.716557781462
2025-03-05 17:00:00+00:00,-778.719873228515
2025-03-05 18:00:00+00:00,-809.5289896823203
2025-03-05 19:00:00+00:00,-806.9404314227745
2025-03-05 20:00:00+00:00,-782.5201518035445
2025-03-06 14:00:00+00:00,-792.9887464656808
2025-03-06 15:00:00+00:00,-836.2083070482935
2025-03-06 16:00:00+00:00,-765.4786854034257
2025-03-06 17:00:00+00:00,-747.7004776260535
2025-03-06 18:00:00+00:00,-741.363354297307
2025-03-06 19:00:00+00:00,-751.765264730872
2025-03-06 20:00:00+00:00,-753.7993116285971
2025-03-07 14:00:00+00:00,-820.8980033003431
2025-03-07 15:00:00+00:00,-789.2859772030015
2025-03-07 16:00:00+00:00,-809.097552082081
2025-03-07 17:00:00+00:00,-808.6269848710028
2025-03-07 18:00:00+00:00,-808.3797551636261
2025-03-07 19:00:00+00:00,-788.8183798593693
2025-03-07 20:00:00+00:00,-770.890527975379
2025-03-10 13:00:00+00:00,-786.6484147150212
2025-03-10 14:00:00+00:00,-750.6838497965807
2025-03-10 15:00:00+00:00,-714.9590571620314
2025-03-10 16:00:00+00:00,-741.7722821382134
2025-03-10 17:00:00+00:00,-699.06278754721
2025-03-10 18:00:00+00:00,-704.4554697631684
2025-03-10 19:00:00+00:00,-721.2012853224483
2025-03-11 13:00:00+00:00,-755.6738541203752
2025-03-11 14:00:00+00:00,-759.7057392141262
2025-03-11 15:00:00+00:00,-758.776615245643
2025-03-11 16:00:00+00:00,-751.1869578664227
2025-03-11 17:00:00+00:00,-746.9228938772819
2025-03-11 18:00:00+00:00,-781.230375825465
2025-03-11 19:00:00+00:00,-800.0366463614479
2025-03-12 13:00:00+00:00,-779.8267065891159
2025-03-12 14:00:00+00:00,-811.7339152168889
2025-03-12 15:00:00+00:00,-828.0730274416801
2025-03-12 16:00:00+00:00,-817.308911858255
2025-03-12 17:00:00+00:00,-831.1349748319578
2025-03-12 18:00:00+00:00,-810.7411712947948
2025-03-12 19:00:00+00:00,-811.9421324823855
2025-03-13 13:00:00+00:00,-885.1701182873134
2025-03-13 14:00:00+00:00,-886.273675736118
2025-03-13 15:00:00+00:00,-939.1275941500043
2025-03-13 16:00:00+00:00,-931.397395311399
2025-03-13 17:00:00+00:00,-929.0245302285983
2025-03-13 18:00:00+00:00,-922.7338952529841
2025-03-13 19:00:00+00:00,-930.2850454292129
2025-03-14 13:00:00+00:00,-983.6104902852123
2025-03-14 14:00:00+00:00,-964.0575501232403
2025-03-14 15:00:00+00:00,-966.6753383814169
2025-03-14 16:00:00+00:00,-986.3093699956443
2025-03-14 17:00:00+00:00,-982.6250260941305
2025-03-14 18:00:00+00:00,-984.1103841959689
2025-03-14 19:00:00+00:00,-978.5199304932114
2025-03-17 13:00:00+00:00,-981.7507766627551
2025-03-17 14:00:00+00:00,-982.5880242886632
2025-03-17 15:00:00+00:00,-1010.6121582970882
2025-03-17 16:00:00+00:00,-1003.1847717061763
2025-03-17 17:00:00+00:00,-989.662330695735
2025-03-17 18:00:00+00:00,-995.4487545921822
2025-03-17 19:00:00+00:00,-974.1295827529049
2025-03-18 13:00:00+00:00,-1072.7225953342006
2025-03-18 14:00:00+00:00,-1077.7570322776144
2025-03-18 15:00:00+00:00,-1083.4393889624655
2025-03-18 16:00:00+00:00,-1057.063920931301
2025-03-18 17:00:00+00:00,-1061.2272671861774
2025-03-18 18:00:00+00:00,-1077.1559153937044
2025-03-18 19:00:00+00:00,-1089.0760165139575
2025-03-19 13:00:00+00:00,-1120.3935132675508
2025-03-19 14:00:00+00:00,-1124.8587025113684
2025-03-19 15:00:00+00:00,-1114.7698696888474
2025-03-19 16:00:00+00:00,-1118.2234001754093
2025-03-19 17:00:00+00:00,-1122.555497261758
2025-03-19 18:00:00+00:00,-1140.6734967735026
2025-03-19 19:00:00+00:00,-1158.3453265167338
2025-03-20 13:00:00+00:00,-1071.4504350017194
2025-03-20 14:00:00+00:00,-1099.1655307001688
2025-03-20 15:00:00+00:00,-1140.4966476229315
2025-03-20 16:00:00+00:00,-1120.852981513249
2025-03-20 17:00:00+00:00,-1115.2510449446804
2025-03-20 18:00:00+00:00,-1151.445593507068
2025-03-20 19:00:00+00:00,-1149.7581467500183
2025-03-21 13:00:00+00:00,-1066.9731732432222
2025-03-21 14:00:00+00:00,-1044.0966503275831
2025-03-21 15:00:00+00:00,-1055.0597059721445
2025-03-21 16:00:00+00:00,-1056.404522614598
2025-03-21 17:00:00+00:00,-1045.1593940413977
2025-03-21 18:00:00+00:00,-1052.8154311725095
2025-03-21 19:00:00+00:00,-1036.8172444702532
2025-03-24 13:00:00+00:00,-937.5235145983729
2025-03-24 14:00:00+00:00,-910.7838772764705
2025-03-24 15:00:00+00:00,-899.3660966600427
2025-03-24 16:00:00+00:00,-911.1497577131679
2025-03-24 17:00:00+00:00,-911.7277443360463
2025-03-24 18:00:00+00:00,-930.0576250950162
2025-03-24 19:00:00+00:00,-926.146131760279
2025-03-25 13:00:00+00:00,-1061.0466311006987
2025-03-25 14:00:00+00:00,-997.5424653670434
2025-03-25 15:00:00+00:00,-971.4047181768036
2025-03-25 16:00:00+00:00,-978.7598702726194
2025-03-25 17:00:00+00:00,-975.9633115096929
2025-03-25 18:00:00+00:00,-1001.7101287903315
2025-03-25 19:00:00+00:00,-1022.5814775157799
2025-03-26 13:00:00+00:00,-1215.8927710269654
2025-03-26 14:00:00+00:00,-1205.945011512054
2025-03-26 15:00:00+00:00,-1200.910574568641
2025-03-26 16:00:00+00:00,-1195.1268144952892
2025-03-26 17:00:00+00:00,-1187.7326220708692
2025-03-26 18:00:00+00:00,-1159.6464254789637
2025-03-26 19:00:00+00:00,-1159.1762155589815
2025-03-27 13:00:00+00:00,-1240.7511220956096
2025-03-27 14:00:00+00:00,-1280.9058810217844
2025-03-27 15:00:00+00:00,-1253.467494719677
2025-03-27 16:00:00+00:00,-1243.0943031876348
2025-03-27 17:00:00+00:00,-1257.6960564426547
2025-03-27 18:00:00+00:00,-1242.7359099672965
2025-03-27 19:00:00+00:00,-1245.483436615066
2025-03-28 13:00:00+00:00,-1158.4652824630757
2025-03-28 14:00:00+00:00,-1174.8892701829195
2025-03-28 15:00:00+00:00,-1137.85890247405
2025-03-28 16:00:00+00:00,-1107.0710081863326
2025-03-28 17:00:00+00:00,-1119.2107828285584
2025-03-28 18:00:00+00:00,-1131.0976940728651
2025-03-28 19:00:00+00:00,-1118.4350925472413
2025-03-31 13:00:00+00:00,-1093.8663762961373
2025-03-31 14:00:00+00:00,-1119.5085880841034
2025-03-31 15:00:00+00:00,-1137.1118794912375
2025-03-31 16:00:00+00:00,-1129.7865212985018
2025-03-31 17:00:00+00:00,-1127.5541976750872
2025-03-31 18:00:00+00:00,-1141.2395253150896
2025-03-31 19:00:00+00:00,-1154.695289818757
2025-04-01 13:00:00+00:00,-1055.174798583585
2025-04-01 14:00:00+00:00,-1089.0500316482878
2025-04-01 15:00:00+00:00,-1092.0053494561337
2025-04-01 16:00:00+00:00,-1084.9688016417097
2025-04-01 17:00:00+00:00,-1069.828979926628
2025-04-01 18:00:00+00:00,-1094.2815868918174
2025-04-01 19:00:00+00:00,-1112.2052695551884
2025-04-02 13:00:00+00:00,-1060.652886388423
2025-04-02 14:00:00+00:00,-1081.025609510285
2025-04-02 15:00:00+00:00,-1075.774974151235
2025-04-02 16:00:00+00:00,-1081.589270596583
2025-04-02 17:00:00+00:00,-1058.2214368602652
2025-04-02 18:00:00+00:00,-1069.0101079828128
2025-04-02 19:00:00+00:00,-1083.7076189361478
2025-04-03 13:00:00+00:00,-1053.9344456827055
2025-04-03 14:00:00+00:00,-1009.5058989896991
2025-04-03 15:00:00+00:00,-1024.2077959257717
2025-04-03 16:00:00+00:00,-1001.4780728481226
2025-04-03 17:00:00+00:00,-1003.6869105172658
2025-04-03 18:00:00+00:00,-988.5687958123191
2025-04-03 19:00:00+00:00,-977.9772429898883
2025-04-04 13:00:00+00:00,-664.7709676391798
2025-04-04 14:00:00+00:00,-674.3329666237429
2025-04-04 15:00:00+00:00,-603.109553069069
2025-04-04 16:00:00+00:00,-561.6577930991009
2025-04-04 17:00:00+00:00,-550.330995715848
2025-04-04 18:00:00+00:00,-600.0890249485851
2025-04-04 19:00:00+00:00,-574.0431129120786
2025-04-07 13:00:00+00:00,-345.0332213325177
2025-04-07 14:00:00+00:00,-261.44569547328337
2025-04-07 15:00:00+00:00,-282.12188528828165
2025-04-07 16:00:00+00:00,-333.92925778174987
2025-04-07 17:00:00+00:00,-315.1429491957629
2025-04-07 18:00:00+00:00,-329.3338811424209
2025-04-07 19:00:00+00:00,-313.6575910939243
2025-04-08 13:00:00+00:00,-295.54472003383165
2025-04-08 14:00:00+00:00,-267.690388262258
2025-04-08 15:00:00+00:00,-246.84640684681978
2025-04-08 16:00:00+00:00,-180.66775884529798
2025-04-08 17:00:00+00:00,-175.26221911466797
2025-04-08 18:00:00+00:00,-130.23664244219606
2025-04-08 19:00:00+00:00,-103.38281913789908
2025-04-09 13:00:00+00:00,-37.64959554386181
2025-04-09 14:00:00+00:00,-80.93202842552287
2025-04-09 15:00:00+00:00,-62.98574961269655
2025-04-09 16:00:00+00:00,-229.2816508199944
2025-04-09 17:00:00+00:00,-335.4687928627752
2025-04-09 18:00:00+00:00,-394.52607494299184
2025-04-09 19:00:00+00:00,-382.2552044614451
2025-04-10 13:00:00+00:00,-438.3949466791478
2025-04-10 14:00:00+00:00,-384.1156942237661
2025-04-10 15:00:00+00:00,-263.8182954393309
2025-04-10 16:00:00+00:00,-327.6153371714194
2025-04-10 17:00:00+00:00,-369.1172294208105
2025-04-10 18:00:00+00:00,-292.2798067828902
2025-04-10 19:00:00+00:00,-310.1628236590642
2025-04-11 13:00:00+00:00,-372.0650434306811
2025-04-11 14:00:00+00:00,-356.8256254784262
2025-04-11 15:00:00+00:00,-352.16199724286207
2025-04-11 16:00:00+00:00,-363.5856283119484
2025-04-11 17:00:00+00:00,-392.2946754072345
2025-04-11 18:00:00+00:00,-430.59409197002725
2025-04-11 19:00:00+00:00,-413.69082072489385
2025-04-14 13:00:00+00:00,-494.50048275890305
2025-04-14 14:00:00+00:00,-536.8947453241551
2025-04-14 15:00:00+00:00,-507.2781109737546
2025-04-14 16:00:00+00:00,-536.8989145447732
2025-04-14 17:00:00+00:00,-525.8746075999724
2025-04-14 18:00:00+00:00,-532.9837572283072
2025-04-14 19:00:00+00:00,-504.84414253850906
2025-04-15 13:00:00+00:00,-556.4614352325833
2025-04-15 14:00:00+00:00,-570.5471461240461
2025-04-15 15:00:00+00:00,-538.6983360980244
2025-04-15 16:00:00+00:00,-528.7504127493825
2025-04-15 17:00:00+00:00,-524.908769690899
2025-04-15 18:00:00+00:00,-547.7734995268768
2025-04-15 19:00:00+00:00,-496.9636197972689
2025-04-16 13:00:00+00:00,-686.5541929014312
2025-04-16 14:00:00+00:00,-715.6417926246783
2025-04-16 15:00:00+00:00,-685.4391103818265
2025-04-16 16:00:00+00:00,-703.2657392926618
2025-04-16 17:00:00+00:00,-671.2969733202987
2025-04-16 18:00:00+00:00,-640.2603501421725
2025-04-16 19:00:00+00:00,-636.2501497095833
2025-04-17 13:00:00+00:00,-677.8520655789565
2025-04-17 14:00:00+00:00,-691.836713040451
2025-04-17 15:00:00+00:00,-728.97003824625
2025-04-17 16:00:00+00:00,-727.1706166929979
2025-04-17 17:00:00+00:00,-722.7230389252763
2025-04-17 18:00:00+00:00,-698.8392010301277
2025-04-17 19:00:00+00:00,-682.0997132756718
2025-04-21 13:00:00+00:00,-626.8123513817708
2025-04-21 14:00:00+00:00,-614.0545698547246
2025-04-21 15:00:00+00:00,-642.4845446676533
2025-04-21 16:00:00+00:00,-626.1122425669163
2025-04-21 17:00:00+00:00,-638.3211984127767
2025-04-21 18:00:00+00:00,-617.192026253461
2025-04-21 19:00:00+00:00,-628.4565409865324
2025-04-22 13:00:00+00:00,-785.3720762706762
2025-04-22 14:00:00+00:00,-795.6402270418245
2025-04-22 15:00:00+00:00,-813.1057989092272
2025-04-22 16:00:00+00:00,-775.4571493406143
2025-04-22 17:00:00+00:00,-781.1038430609171
2025-04-22 18:00:00+00:00,-795.4462674845469
2025-04-22 19:00:00+00:00,-785.8200473322993
2025-04-23 13:00:00+00:00,-727.0446902329282
2025-04-23 14:00:00+00:00,-727.6796911070672
2025-04-23 15:00:00+00:00,-713.527919550082
2025-04-23 16:00:00+00:00,-712.0423074673624
2025-04-23 17:00:00+00:00,-701.2428195373242
2025-04-23 18:00:00+00:00,-702.0663027292302
2025-04-23 19:00:00+00:00,-692.394578170149
2025-04-24 13:00:00+00:00,-723.9450469228999
2025-04-24 14:00:00+00:00,-702.656758427569
2025-04-24 15:00:00+00:00,-729.8368117663737
2025-04-24 16:00:00+00:00,-738.3138281787609
2025-04-24 17:00:00+00:00,-715.0553566622953
2025-04-24 18:00:00+00:00,-738.1241857898962
2025-04-24 19:00:00+00:00,-723.0971543237565
2025-04-25 13:00:00+00:00,-825.0222360477507
2025-04-25 14:00:00+00:00,-812.5693305758109
2025-04-25 15:00:00+00:00,-846.7250098331716
2025-04-25 16:00:00+00:00,-847.6346077246977
2025-04-25 17:00:00+00:00,-843.2424586912823
2025-04-25 18:00:00+00:00,-845.1469151472091
2025-04-25 19:00:00+00:00,-823.3717910961686
2025-04-28 13:00:00+00:00,-850.3066253640089
2025-04-28 14:00:00+00:00,-846.7913895850633
2025-04-28 15:00:00+00:00,-844.2661899632168
2025-04-28 16:00:00+00:00,-839.585334151986
2025-04-28 17:00:00+00:00,-847.4650345398925
2025-04-28 18:00:00+00:00,-828.6906176489838
2025-04-28 19:00:00+00:00,-822.4895605146534
2025-04-29 13:00:00+00:00,-821.3288038172686
2025-04-29 14:00:00+00:00,-779.3040334377341
2025-04-29 15:00:00+00:00,-730.0744069782941
2025-04-29 16:00:00+00:00,-677.5173403260927
2025-04-29 17:00:00+00:00,-661.0759296365751
2025-04-29 18:00:00+00:00,-632.7085717738727
2025-04-29 19:00:00+00:00,-615.4985168083383
2025-04-30 13:00:00+00:00,-538.4440844715408
2025-04-30 14:00:00+00:00,-579.1782675897555
2025-04-30 15:00:00+00:00,-579.1782675897555
2025-04-30 16:00:00+00:00,-579.1782675897555
2025-04-30 17:00:00+00:00,-579.1782675897555
2025-04-30 18:00:00+00:00,-579.1782675897555
2025-04-30 19:00:00+00:00,-579.1782675897555
2025-05-01 13:00:00+00:00,-579.1782675897555
2025-05-01 14:00:00+00:00,-579.1782675897555
2025-05-01 15:00:00+00:00,-579.1782675897555
2025-05-01 16:00:00+00:00,-579.1782675897555
2025-05-01 17:00:00+00:00,-579.1782675897555
2025-05-01 18:00:00+00:00,-579.1782675897555
2025-05-01 19:00:00+00:00,-579.1782675897555
2025-05-02 13:00:00+00:00,-579.1782675897555
2025-05-02 14:00:00+00:00,-579.1782675897555
2025-05-02 15:00:00+00:00,-579.1782675897555
2025-05-02 16:00:00+00:00,-579.1782675897555
2025-05-02 17:00:00+00:00,-579.1782675897555
2025-05-02 18:00:00+00:00,-579.1782675897555
2025-05-02 19:00:00+00:00,-579.1782675897555
2025-05-05 13:00:00+00:00,-579.1782675897555
2025-05-05 14:00:00+00:00,-579.1782675897555
2025-05-05 15:00:00+00:00,-579.1782675897555
2025-05-05 16:00:00+00:00,-579.1782675897555
2025-05-05 17:00:00+00:00,-579.1782675897555
2025-05-05 18:00:00+00:00,-579.1782675897555
2025-05-05 19:00:00+00:00,-579.1782675897555
2025-05-06 13:00:00+00:00,-579.1782675897555
2025-05-06 14:00:00+00:00,-579.1782675897555
2025-05-06 15:00:00+00:00,-579.1782675897555
2025-05-06 16:00:00+00:00,-579.1782675897555
2025-05-06 17:00:00+00:00,-579.1782675897555
2025-05-06 18:00:00+00:00,-579.1782675897555
2025-05-06 19:00:00+00:00,-579.1782675897555
2025-05-07 13:00:00+00:00,-579.1782675897555
2025-05-07 14:00:00+00:00,-579.1782675897555
2025-05-07 15:00:00+00:00,-579.1782675897555
2025-05-07 16:00:00+00:00,-579.1782675897555
2025-05-07 17:00:00+00:00,-579.1782675897555
2025-05-07 18:00:00+00:00,-579.1782675897555
2025-05-07 19:00:00+00:00,-579.1782675897555
2025-05-08 13:00:00+00:00,-579.1782675897555
2025-05-08 14:00:00+00:00,-579.1782675897555
2025-05-08 15:00:00+00:00,-579.1782675897555
2025-05-08 16:00:00+00:00,-579.1782675897555
2025-05-08 17:00:00+00:00,-579.1782675897555
2025-05-08 18:00:00+00:00,-579.1782675897555
2025-05-08 19:00:00+00:00,-579.1782675897555
2025-05-09 13:00:00+00:00,-579.1782675897555
2025-05-09 14:00:00+00:00,-579.1782675897555
2025-05-09 15:00:00+00:00,-579.1782675897555
2025-05-09 16:00:00+00:00,-579.1782675897555
2025-05-09 17:00:00+00:00,-579.1782675897555
2025-05-09 18:00:00+00:00,-579.1782675897555
2025-05-09 19:00:00+00:00,-579.1782675897555
2025-05-12 13:00:00+00:00,-579.1782675897555
2025-05-12 14:00:00+00:00,-579.1782675897555
2025-05-12 15:00:00+00:00,-579.1782675897555
2025-05-12 16:00:00+00:00,-579.1782675897555
2025-05-12 17:00:00+00:00,-579.1782675897555
2025-05-12 18:00:00+00:00,-579.1782675897555
2025-05-12 19:00:00+00:00,-579.1782675897555
2025-05-13 13:00:00+00:00,-579.1782675897555
2025-05-13 14:00:00+00:00,-579.1782675897555
2025-05-13 15:00:00+00:00,-579.1782675897555
2025-05-13 16:00:00+00:00,-579.1782675897555
2025-05-13 17:00:00+00:00,-579.1782675897555
2025-05-13 18:00:00+00:00,-579.1782675897555
2025-05-13 19:00:00+00:00,-579.1782675897555
2025-05-14 13:00:00+00:00,-579.1782675897555
2025-05-14 14:00:00+00:00,-579.1782675897555
2025-05-14 15:00:00+00:00,-579.1782675897555
2025-05-14 16:00:00+00:00,-579.1782675897555
2025-05-14 17:00:00+00:00,-579.1782675897555
2025-05-14 18:00:00+00:00,-579.1782675897555
2025-05-14 19:00:00+00:00,-579.1782675897555
2025-05-15 13:00:00+00:00,-579.1782675897555
2025-05-15 14:00:00+00:00,-579.1782675897555
2025-05-15 15:00:00+00:00,-579.1782675897555
2025-05-15 16:00:00+00:00,-579.1782675897555
2025-05-15 17:00:00+00:00,-579.1782675897555
2025-05-15 18:00:00+00:00,-579.1782675897555
2025-05-15 19:00:00+00:00,-579.1782675897555
2025-05-16 13:00:00+00:00,-579.1782675897555
2025-05-16 14:00:00+00:00,-579.1782675897555
2025-05-16 15:00:00+00:00,-579.1782675897555
2025-05-16 16:00:00+00:00,-579.1782675897555
2025-05-16 17:00:00+00:00,-579.1782675897555
2025-05-16 18:00:00+00:00,-579.1782675897555
2025-05-16 19:00:00+00:00,-579.1782675897555
2025-05-19 13:00:00+00:00,-579.1782675897555
2025-05-19 14:00:00+00:00,-579.1782675897555
2025-05-19 15:00:00+00:00,-579.1782675897555
2025-05-19 16:00:00+00:00,-579.1782675897555
2025-05-19 17:00:00+00:00,-579.1782675897555
2025-05-19 18:00:00+00:00,-579.1782675897555
2025-05-19 19:00:00+00:00,-579.1782675897555
2025-05-20 13:00:00+00:00,-579.1782675897555
2025-05-20 14:00:00+00:00,-579.1782675897555
2025-05-20 15:00:00+00:00,-579.1782675897555
2025-05-20 16:00:00+00:00,-579.1782675897555
2025-05-20 17:00:00+00:00,-579.1782675897555
2025-05-20 18:00:00+00:00,-579.1782675897555
2025-05-20 19:00:00+00:00,-579.1782675897555
2025-05-21 13:00:00+00:00,-579.1782675897555
2025-05-21 14:00:00+00:00,-579.1782675897555
2025-05-21 15:00:00+00:00,-579.1782675897555
2025-05-21 16:00:00+00:00,-579.1782675897555
2025-05-21 17:00:00+00:00,-579.1782675897555
2025-05-21 18:00:00+00:00,-579.1782675897555
2025-05-21 19:00:00+00:00,-579.1782675897555
2025-05-22 13:00:00+00:00,-579.1782675897555
2025-05-22 14:00:00+00:00,-579.1782675897555
2025-05-22 15:00:00+00:00,-579.1782675897555
2025-05-22 16:00:00+00:00,-579.1782675897555
2025-05-22 17:00:00+00:00,-579.1782675897555
2025-05-22 18:00:00+00:00,-579.1782675897555
2025-05-22 19:00:00+00:00,-579.1782675897555
2025-05-23 13:00:00+00:00,-579.1782675897555
2025-05-23 14:00:00+00:00,-579.1782675897555
2025-05-23 15:00:00+00:00,-579.1782675897555
2025-05-23 16:00:00+00:00,-579.1782675897555
2025-05-23 17:00:00+00:00,-579.1782675897555
2025-05-23 18:00:00+00:00,-579.1782675897555
2025-05-23 19:00:00+00:00,-579.1782675897555
2025-05-27 13:00:00+00:00,-579.1782675897555
2025-05-27 14:00:00+00:00,-579.1782675897555
2025-05-27 15:00:00+00:00,-579.1782675897555
2025-05-27 16:00:00+00:00,-579.1782675897555
2025-05-27 17:00:00+00:00,-579.1782675897555
2025-05-27 18:00:00+00:00,-579.1782675897555
2025-05-27 19:00:00+00:00,-579.1782675897555
2025-05-28 13:00:00+00:00,-579.1782675897555
2025-05-28 14:00:00+00:00,-579.1782675897555
2025-05-28 15:00:00+00:00,-579.1782675897555
2025-05-28 16:00:00+00:00,-579.1782675897555
2025-05-28 17:00:00+00:00,-579.1782675897555
2025-05-28 18:00:00+00:00,-579.1782675897555
2025-05-28 19:00:00+00:00,-579.1782675897555
2025-05-29 13:00:00+00:00,-579.1782675897555
2025-05-29 14:00:00+00:00,-579.1782675897555
2025-05-29 15:00:00+00:00,-579.1782675897555
2025-05-29 16:00:00+00:00,-579.1782675897555
2025-05-29 17:00:00+00:00,-579.1782675897555
2025-05-29 18:00:00+00:00,-579.1782675897555
2025-05-29 19:00:00+00:00,-579.1782675897555
2025-05-30 13:00:00+00:00,-579.1782675897555
2025-05-30 14:00:00+00:00,-579.1782675897555
2025-05-30 15:00:00+00:00,-579.1782675897555
2025-05-30 16:00:00+00:00,-579.1782675897555
2025-05-30 17:00:00+00:00,-579.1782675897555
2025-05-30 18:00:00+00:00,-579.1782675897555
2025-05-30 19:00:00+00:00,-579.1782675897555
2025-06-02 13:00:00+00:00,-579.1782675897555
2025-06-02 14:00:00+00:00,-579.1782675897555
2025-06-02 15:00:00+00:00,-579.1782675897555
2025-06-02 16:00:00+00:00,-579.1782675897555
2025-06-02 17:00:00+00:00,-579.1782675897555
2025-06-02 18:00:00+00:00,-579.1782675897555
2025-06-02 19:00:00+00:00,-579.1782675897555
2025-06-03 13:00:00+00:00,-579.1782675897555
2025-06-03 14:00:00+00:00,-579.1782675897555
2025-06-03 15:00:00+00:00,-579.1782675897555
2025-06-03 16:00:00+00:00,-579.1782675897555
2025-06-03 17:00:00+00:00,-579.1782675897555
2025-06-03 18:00:00+00:00,-579.1782675897555
2025-06-03 19:00:00+00:00,-579.1782675897555
2025-06-04 13:00:00+00:00,-579.1782675897555
2025-06-04 14:00:00+00:00,-579.1782675897555
2025-06-04 15:00:00+00:00,-579.1782675897555
2025-06-04 16:00:00+00:00,-579.1782675897555
2025-06-04 17:00:00+00:00,-579.1782675897555
2025-06-04 18:00:00+00:00,-579.1782675897555
2025-06-04 19:00:00+00:00,-579.1782675897555
2025-06-05 13:00:00+00:00,-579.1782675897555
2025-06-05 14:00:00+00:00,-579.1782675897555
2025-06-05 15:00:00+00:00,-579.1782675897555
2025-06-05 16:00:00+00:00,-579.1782675897555
2025-06-05 17:00:00+00:00,-579.1782675897555
2025-06-05 18:00:00+00:00,-579.1782675897555
2025-06-05 19:00:00+00:00,-579.1782675897555
2025-06-06 13:00:00+00:00,-579.1782675897555
2025-06-06 14:00:00+00:00,-579.1782675897555
2025-06-06 15:00:00+00:00,-579.1782675897555
2025-06-06 16:00:00+00:00,-579.1782675897555
2025-06-06 17:00:00+00:00,-579.1782675897555
2025-06-06 18:00:00+00:00,-579.1782675897555
2025-06-06 19:00:00+00:00,-579.1782675897555
2025-06-09 13:00:00+00:00,-579.1782675897555
2025-06-09 14:00:00+00:00,-579.1782675897555
2025-06-09 15:00:00+00:00,-579.1782675897555
2025-06-09 16:00:00+00:00,-579.1782675897555
2025-06-09 17:00:00+00:00,-579.1782675897555
2025-06-09 18:00:00+00:00,-579.1782675897555
2025-06-09 19:00:00+00:00,-579.1782675897555
2025-06-10 13:00:00+00:00,-579.1782675897555
2025-06-10 14:00:00+00:00,-579.1782675897555
2025-06-10 15:00:00+00:00,-579.1782675897555
2025-06-10 16:00:00+00:00,-579.1782675897555
2025-06-10 17:00:00+00:00,-579.1782675897555
2025-06-10 18:00:00+00:00,-579.1782675897555
2025-06-10 19:00:00+00:00,-579.1782675897555
2025-06-11 13:00:00+00:00,-579.1782675897555
2025-06-11 14:00:00+00:00,-579.1782675897555
2025-06-11 15:00:00+00:00,-579.1782675897555
2025-06-11 16:00:00+00:00,-579.1782675897555
2025-06-11 17:00:00+00:00,-579.1782675897555
2025-06-11 18:00:00+00:00,-579.1782675897555
2025-06-11 19:00:00+00:00,-579.1782675897555
2025-06-12 13:00:00+00:00,-579.1782675897555
2025-06-12 14:00:00+00:00,-579.1782675897555
2025-06-12 15:00:00+00:00,-579.1782675897555
2025-06-12 16:00:00+00:00,-579.1782675897555
2025-06-12 17:00:00+00:00,-579.1782675897555
2025-06-12 18:00:00+00:00,-579.1782675897555
2025-06-12 19:00:00+00:00,-579.1782675897555
2025-06-13 13:00:00+00:00,-579.1782675897555
2025-06-13 14:00:00+00:00,-579.1782675897555
2025-06-13 15:00:00+00:00,-579.1782675897555
2025-06-13 16:00:00+00:00,-579.1782675897555
2025-06-13 17:00:00+00:00,-579.1782675897555
2025-06-13 18:00:00+00:00,-579.1782675897555
2025-06-13 19:00:00+00:00,-579.1782675897555
2025-06-16 13:00:00+00:00,-579.1782675897555
2025-06-16 14:00:00+00:00,-579.1782675897555
2025-06-16 15:00:00+00:00,-579.1782675897555
2025-06-16 16:00:00+00:00,-579.1782675897555
2025-06-16 17:00:00+00:00,-579.1782675897555
2025-06-16 18:00:00+00:00,-579.1782675897555
2025-06-16 19:00:00+00:00,-579.1782675897555
2025-06-17 13:00:00+00:00,-579.1782675897555
2025-06-17 14:00:00+00:00,-579.1782675897555
2025-06-17 15:00:00+00:00,-579.1782675897555
2025-06-17 16:00:00+00:00,-579.1782675897555
2025-06-17 17:00:00+00:00,-579.1782675897555
2025-06-17 18:00:00+00:00,-579.1782675897555
2025-06-17 19:00:00+00:00,-579.1782675897555
2025-06-18 13:00:00+00:00,-579.1782675897555
2025-06-18 14:00:00+00:00,-579.1782675897555
2025-06-18 15:00:00+00:00,-579.1782675897555
2025-06-18 16:00:00+00:00,-579.1782675897555
2025-06-18 17:00:00+00:00,-579.1782675897555
2025-06-18 18:00:00+00:00,-579.1782675897555
2025-06-18 19:00:00+00:00,-579.1782675897555
2025-06-20 13:00:00+00:00,-579.1782675897555
2025-06-20 14:00:00+00:00,-579.1782675897555
2025-06-20 15:00:00+00:00,-579.1782675897555
2025-06-20 16:00:00+00:00,-579.1782675897555
2025-06-20 17:00:00+00:00,-579.1782675897555
2025-06-20 18:00:00+00:00,-579.1782675897555
2025-06-20 19:00:00+00:00,-579.1782675897555
2025-06-23 13:00:00+00:00,-579.1782675897555
2025-06-23 14:00:00+00:00,-579.1782675897555
2025-06-23 15:00:00+00:00,-579.1782675897555
2025-06-23 16:00:00+00:00,-579.1782675897555
2025-06-23 17:00:00+00:00,-579.1782675897555
2025-06-23 18:00:00+00:00,-579.1782675897555
2025-06-23 19:00:00+00:00,-579.1782675897555
2025-06-24 13:00:00+00:00,-579.1782675897555
2025-06-24 14:00:00+00:00,-579.1782675897555
2025-06-24 15:00:00+00:00,-579.1782675897555
2025-06-24 16:00:00+00:00,-579.1782675897555
2025-06-24 17:00:00+00:00,-579.1782675897555
2025-06-24 18:00:00+00:00,-579.1782675897555
2025-06-24 19:00:00+00:00,-579.1782675897555
2025-06-25 13:00:00+00:00,-579.1782675897555
2025-06-25 14:00:00+00:00,-579.1782675897555
2025-06-25 15:00:00+00:00,-579.1782675897555
2025-06-25 16:00:00+00:00,-579.1782675897555
2025-06-25 17:00:00+00:00,-579.1782675897555
2025-06-25 18:00:00+00:00,-579.1782675897555
2025-06-25 19:00:00+00:00,-579.1782675897555
2025-06-26 13:00:00+00:00,-579.1782675897555
2025-06-26 14:00:00+00:00,-579.1782675897555
2025-06-26 15:00:00+00:00,-579.1782675897555
2025-06-26 16:00:00+00:00,-579.1782675897555
2025-06-26 17:00:00+00:00,-579.1782675897555
2025-06-26 18:00:00+00:00,-579.1782675897555
2025-06-26 19:00:00+00:00,-579.1782675897555
2025-06-27 13:00:00+00:00,-579.1782675897555
2025-06-27 14:00:00+00:00,-579.1782675897555
2025-06-27 15:00:00+00:00,-579.1782675897555
2025-06-27 16:00:00+00:00,-579.1782675897555
2025-06-27 17:00:00+00:00,-579.1782675897555
2025-06-27 18:00:00+00:00,-579.1782675897555
2025-06-27 19:00:00+00:00,-579.1782675897555
2025-06-30 13:00:00+00:00,-579.1782675897555
2025-06-30 14:00:00+00:00,-579.1782675897555
2025-06-30 15:00:00+00:00,-579.1782675897555
2025-06-30 16:00:00+00:00,-579.1782675897555
2025-06-30 17:00:00+00:00,-579.1782675897555
2025-06-30 18:00:00+00:00,-579.1782675897555
2025-06-30 19:00:00+00:00,-579.1782675897555
2025-07-01 13:00:00+00:00,-579.1782675897555
2025-07-01 14:00:00+00:00,-579.1782675897555
2025-07-01 15:00:00+00:00,-579.1782675897555
2025-07-01 16:00:00+00:00,-579.1782675897555
2025-07-01 17:00:00+00:00,-579.1782675897555
2025-07-01 18:00:00+00:00,-579.1782675897555
2025-07-01 19:00:00+00:00,-579.1782675897555
2025-07-02 13:00:00+00:00,-579.1782675897555
2025-07-02 14:00:00+00:00,-579.1782675897555
2025-07-02 15:00:00+00:00,-579.1782675897555
2025-07-02 16:00:00+00:00,-579.1782675897555
2025-07-02 17:00:00+00:00,-579.1782675897555
2025-07-02 18:00:00+00:00,-579.1782675897555
2025-07-02 19:00:00+00:00,-579.1782675897555
2025-07-03 13:00:00+00:00,-579.1782675897555
2025-07-03 14:00:00+00:00,-579.1782675897555
2025-07-03 15:00:00+00:00,-579.1782675897555
2025-07-07 13:00:00+00:00,-579.1782675897555
2025-07-07 14:00:00+00:00,-579.1782675897555
2025-07-07 15:00:00+00:00,-579.1782675897555
2025-07-07 16:00:00+00:00,-579.1782675897555
2025-07-07 17:00:00+00:00,-579.1782675897555
2025-07-07 18:00:00+00:00,-579.1782675897555
2025-07-07 19:00:00+00:00,-579.1782675897555
2025-07-08 13:00:00+00:00,-579.1782675897555
2025-07-08 14:00:00+00:00,-579.1782675897555
2025-07-08 15:00:00+00:00,-579.1782675897555
2025-07-08 16:00:00+00:00,-579.1782675897555
2025-07-08 17:00:00+00:00,-579.1782675897555
2025-07-08 18:00:00+00:00,-579.1782675897555
2025-07-08 19:00:00+00:00,-579.1782675897555
2025-07-09 13:00:00+00:00,-579.1782675897555
2025-07-09 14:00:00+00:00,-579.1782675897555
2025-07-09 15:00:00+00:00,-579.1782675897555
2025-07-09 16:00:00+00:00,-579.1782675897555
2025-07-09 17:00:00+00:00,-579.1782675897555
2025-07-09 18:00:00+00:00,-579.1782675897555
2025-07-09 19:00:00+00:00,-579.1782675897555
2025-07-10 13:00:00+00:00,-579.1782675897555
2025-07-10 14:00:00+00:00,-579.1782675897555
2025-07-10 15:00:00+00:00,-579.1782675897555
2025-07-10 16:00:00+00:00,-579.1782675897555
2025-07-10 17:00:00+00:00,-579.1782675897555
2025-07-10 18:00:00+00:00,-579.1782675897555
2025-07-10 19:00:00+00:00,-579.1782675897555
2025-07-11 13:00:00+00:00,-579.1782675897555
2025-07-11 14:00:00+00:00,-579.1782675897555
2025-07-11 15:00:00+00:00,-579.1782675897555
2025-07-11 16:00:00+00:00,-579.1782675897555
2025-07-11 17:00:00+00:00,-579.1782675897555
2025-07-11 18:00:00+00:00,-579.1782675897555
2025-07-11 19:00:00+00:00,-579.1782675897555
2025-07-14 13:00:00+00:00,-579.1782675897555
2025-07-14 14:00:00+00:00,-579.1782675897555
2025-07-14 15:00:00+00:00,-579.1782675897555
2025-07-14 16:00:00+00:00,-579.1782675897555
2025-07-14 17:00:00+00:00,-579.1782675897555
2025-07-14 18:00:00+00:00,-579.1782675897555
2025-07-14 19:00:00+00:00,-579.1782675897555
2025-07-15 13:00:00+00:00,-579.1782675897555
2025-07-15 14:00:00+00:00,-579.1782675897555
2025-07-15 15:00:00+00:00,-579.1782675897555
2025-07-15 16:00:00+00:00,-579.1782675897555
2025-07-15 17:00:00+00:00,-579.1782675897555
2025-07-15 18:00:00+00:00,-579.1782675897555
2025-07-15 19:00:00+00:00,-579.1782675897555
2025-07-16 13:00:00+00:00,-579.1782675897555
2025-07-16 14:00:00+00:00,-579.1782675897555
2025-07-16 15:00:00+00:00,-579.1782675897555
2025-07-16 16:00:00+00:00,-579.1782675897555
2025-07-16 17:00:00+00:00,-579.1782675897555
2025-07-16 18:00:00+00:00,-579.1782675897555
2025-07-16 19:00:00+00:00,-579.1782675897555
2025-07-17 13:00:00+00:00,-579.1782675897555
2025-07-17 14:00:00+00:00,-579.1782675897555
2025-07-17 15:00:00+00:00,-579.1782675897555
2025-07-17 16:00:00+00:00,-579.1782675897555
2025-07-17 17:00:00+00:00,-579.1782675897555
2025-07-17 18:00:00+00:00,-579.1782675897555
2025-07-17 19:00:00+00:00,-579.1782675897555
2025-07-18 13:00:00+00:00,-579.1782675897555
2025-07-18 14:00:00+00:00,-579.1782675897555
2025-07-18 15:00:00+00:00,-579.1782675897555
2025-07-18 16:00:00+00:00,-579.1782675897555
2025-07-18 17:00:00+00:00,-579.1782675897555
2025-07-18 18:00:00+00:00,-579.1782675897555
2025-07-18 19:00:00+00:00,-579.1782675897555
2025-07-21 13:00:00+00:00,-579.1782675897555
2025-07-21 14:00:00+00:00,-579.1782675897555
2025-07-21 15:00:00+00:00,-579.1782675897555
2025-07-21 16:00:00+00:00,-579.1782675897555
2025-07-21 17:00:00+00:00,-579.1782675897555
2025-07-21 18:00:00+00:00,-579.1782675897555
2025-07-21 19:00:00+00:00,-579.1782675897555
2025-07-22 13:00:00+00:00,-579.1782675897555
2025-07-22 14:00:00+00:00,-579.1782675897555
2025-07-22 15:00:00+00:00,-579.1782675897555
2025-07-22 16:00:00+00:00,-579.1782675897555
2025-07-22 17:00:00+00:00,-579.1782675897555
2025-07-22 18:00:00+00:00,-579.1782675897555
2025-07-22 19:00:00+00:00,-579.1782675897555
2025-07-23 13:00:00+00:00,-579.1782675897555
2025-07-23 14:00:00+00:00,-579.1782675897555
2025-07-23 15:00:00+00:00,-579.1782675897555
2025-07-23 16:00:00+00:00,-579.1782675897555
2025-07-23 17:00:00+00:00,-579.1782675897555
2025-07-23 18:00:00+00:00,-579.1782675897555
2025-07-23 19:00:00+00:00,-579.1782675897555
2025-07-24 13:00:00+00:00,-579.1782675897555
2025-07-24 14:00:00+00:00,-579.1782675897555
2025-07-24 15:00:00+00:00,-579.1782675897555
2025-07-24 16:00:00+00:00,-579.1782675897555
2025-07-24 17:00:00+00:00,-579.1782675897555
2025-07-24 18:00:00+00:00,-579.1782675897555
2025-07-24 19:00:00+00:00,-579.1782675897555
2025-07-25 13:00:00+00:00,-579.1782675897555
2025-07-25 14:00:00+00:00,-579.1782675897555
2025-07-25 15:00:00+00:00,-579.1782675897555
2025-07-25 16:00:00+00:00,-579.1782675897555
2025-07-25 17:00:00+00:00,-579.1782675897555
2025-07-25 18:00:00+00:00,-579.1782675897555
2025-07-25 19:00:00+00:00,-579.1782675897555
2025-07-28 13:00:00+00:00,-579.1782675897555
2025-07-28 14:00:00+00:00,-579.1782675897555
2025-07-28 15:00:00+00:00,-579.1782675897555
2025-07-28 16:00:00+00:00,-579.1782675897555
2025-07-28 17:00:00+00:00,-579.1782675897555
2025-07-28 18:00:00+00:00,-579.1782675897555
2025-07-28 19:00:00+00:00,-579.1782675897555
2025-07-29 13:00:00+00:00,-579.1782675897555
2025-07-29 14:00:00+00:00,-579.1782675897555
2025-07-29 15:00:00+00:00,-579.1782675897555
2025-07-29 16:00:00+00:00,-579.1782675897555
2025-07-29 17:00:00+00:00,-579.1782675897555
2025-07-29 18:00:00+00:00,-579.1782675897555
2025-07-29 19:00:00+00:00,-579.1782675897555
2025-07-30 13:00:00+00:00,-579.1782675897555
2025-07-30 14:00:00+00:00,-579.1782675897555
2025-07-30 15:00:00+00:00,-579.1782675897555
2025-07-30 16:00:00+00:00,-579.1782675897555
2025-07-30 17:00:00+00:00,-579.1782675897555
2025-07-30 18:00:00+00:00,-579.1782675897555
2025-07-30 19:00:00+00:00,-579.1782675897555
2025-07-31 13:00:00+00:00,-579.1782675897555
2025-07-31 14:00:00+00:00,-579.1782675897555
2025-07-31 15:00:00+00:00,-579.1782675897555
2025-07-31 16:00:00+00:00,-579.1782675897555
2025-07-31 17:00:00+00:00,-579.1782675897555
2025-07-31 18:00:00+00:00,-579.1782675897555
2025-07-31 19:00:00+00:00,-579.1782675897555
2025-08-01 13:00:00+00:00,-579.1782675897555
2025-08-01 14:00:00+00:00,-579.1782675897555
2025-08-01 15:00:00+00:00,-579.1782675897555
2025-08-01 16:00:00+00:00,-579.1782675897555
2025-08-01 17:00:00+00:00,-579.1782675897555
2025-08-01 18:00:00+00:00,-579.1782675897555
2025-08-01 19:00:00+00:00,-579.1782675897555
2025-08-04 13:00:00+00:00,-579.1782675897555
2025-08-04 14:00:00+00:00,-579.1782675897555
2025-08-04 15:00:00+00:00,-579.1782675897555
2025-08-04 16:00:00+00:00,-579.1782675897555
2025-08-04 17:00:00+00:00,-579.1782675897555
2025-08-04 18:00:00+00:00,-579.1782675897555
2025-08-04 19:00:00+00:00,-579.1782675897555
2025-08-05 13:00:00+00:00,-579.1782675897555
2025-08-05 14:00:00+00:00,-579.1782675897555
2025-08-05 15:00:00+00:00,-579.1782675897555
2025-08-05 16:00:00+00:00,-579.1782675897555
2025-08-05 17:00:00+00:00,-579.1782675897555
2025-08-05 18:00:00+00:00,-579.1782675897555
2025-08-05 19:00:00+00:00,-579.1782675897555
2025-08-06 13:00:00+00:00,-579.1782675897555
2025-08-06 14:00:00+00:00,-579.1782675897555
2025-08-06 15:00:00+00:00,-579.1782675897555
2025-08-06 16:00:00+00:00,-579.1782675897555
2025-08-06 17:00:00+00:00,-579.1782675897555
2025-08-06 18:00:00+00:00,-579.1782675897555
2025-08-06 19:00:00+00:00,-579.1782675897555
2025-08-07 13:00:00+00:00,-579.1782675897555
2025-08-07 14:00:00+00:00,-579.1782675897555
2025-08-07 15:00:00+00:00,-579.1782675897555
2025-08-07 16:00:00+00:00,-579.1782675897555
2025-08-07 17:00:00+00:00,-579.1782675897555
2025-08-07 18:00:00+00:00,-579.1782675897555
2025-08-07 19:00:00+00:00,-579.1782675897555
2025-08-08 13:00:00+00:00,-579.1782675897555
2025-08-08 14:00:00+00:00,-579.1782675897555
2025-08-08 15:00:00+00:00,-579.1782675897555
2025-08-08 16:00:00+00:00,-579.1782675897555
2025-08-08 17:00:00+00:00,-579.1782675897555
2025-08-08 18:00:00+00:00,-579.1782675897555
2025-08-08 19:00:00+00:00,-579.1782675897555
2025-08-11 13:00:00+00:00,-579.1782675897555
2025-08-11 14:00:00+00:00,-579.1782675897555
2025-08-11 15:00:00+00:00,-579.1782675897555
2025-08-11 16:00:00+00:00,-579.1782675897555
2025-08-11 17:00:00+00:00,-579.1782675897555
2025-08-11 18:00:00+00:00,-579.1782675897555
2025-08-11 19:00:00+00:00,-579.1782675897555
2025-08-12 13:00:00+00:00,-579.1782675897555
2025-08-12 14:00:00+00:00,-579.1782675897555
2025-08-12 15:00:00+00:00,-579.1782675897555
2025-08-12 16:00:00+00:00,-579.1782675897555
2025-08-12 17:00:00+00:00,-579.1782675897555
2025-08-12 18:00:00+00:00,-579.1782675897555
2025-08-12 19:00:00+00:00,-579.1782675897555
2025-08-13 13:00:00+00:00,-579.1782675897555
2025-08-13 14:00:00+00:00,-579.1782675897555
2025-08-13 15:00:00+00:00,-579.1782675897555
2025-08-13 16:00:00+00:00,-579.1782675897555
2025-08-13 17:00:00+00:00,-579.1782675897555
2025-08-13 18:00:00+00:00,-579.1782675897555
2025-08-13 19:00:00+00:00,-579.1782675897555
2025-08-14 13:00:00+00:00,-579.1782675897555
2025-08-14 14:00:00+00:00,-579.1782675897555
2025-08-14 15:00:00+00:00,-579.1782675897555
2025-08-14 16:00:00+00:00,-579.1782675897555
2025-08-14 17:00:00+00:00,-579.1782675897555
2025-08-14 18:00:00+00:00,-579.1782675897555
2025-08-14 19:00:00+00:00,-579.1782675897555
2025-08-15 13:00:00+00:00,-579.1782675897555
2025-08-15 14:00:00+00:00,-579.1782675897555
2025-08-15 15:00:00+00:00,-579.1782675897555
2025-08-15 16:00:00+00:00,-579.1782675897555
2025-08-15 17:00:00+00:00,-579.1782675897555
2025-08-15 18:00:00+00:00,-579.1782675897555
2025-08-15 19:00:00+00:00,-579.1782675897555
2025-08-18 13:00:00+00:00,-579.1782675897555
2025-08-18 14:00:00+00:00,-579.1782675897555
2025-08-18 15:00:00+00:00,-579.1782675897555
2025-08-18 16:00:00+00:00,-579.1782675897555
2025-08-18 17:00:00+00:00,-579.1782675897555
2025-08-18 18:00:00+00:00,-579.1782675897555
2025-08-18 19:00:00+00:00,-579.1782675897555
2025-08-19 13:00:00+00:00,-579.1782675897555
2025-08-19 14:00:00+00:00,-579.1782675897555
2025-08-19 15:00:00+00:00,-579.1782675897555
2025-08-19 16:00:00+00:00,-579.1782675897555
2025-08-19 17:00:00+00:00,-579.1782675897555
2025-08-19 18:00:00+00:00,-579.1782675897555
2025-08-19 19:00:00+00:00,-579.1782675897555
2025-08-20 13:00:00+00:00,-579.1782675897555
2025-08-20 14:00:00+00:00,-579.1782675897555
2025-08-20 15:00:00+00:00,-579.1782675897555
2025-08-20 16:00:00+00:00,-579.1782675897555
2025-08-20 17:00:00+00:00,-579.1782675897555
2025-08-20 18:00:00+00:00,-579.1782675897555
2025-08-20 19:00:00+00:00,-579.1782675897555
2025-08-21 13:00:00+00:00,-579.1782675897555
2025-08-21 14:00:00+00:00,-579.1782675897555
2025-08-21 15:00:00+00:00,-579.1782675897555
2025-08-21 16:00:00+00:00,-579.1782675897555
2025-08-21 17:00:00+00:00,-579.1782675897555
2025-08-21 18:00:00+00:00,-579.1782675897555
2025-08-21 19:00:00+00:00,-579.1782675897555
2025-08-22 13:00:00+00:00,-579.1782675897555
2025-08-22 14:00:00+00:00,-579.1782675897555
2025-08-22 15:00:00+00:00,-579.1782675897555
2025-08-22 16:00:00+00:00,-579.1782675897555
2025-08-22 17:00:00+00:00,-579.1782675897555
2025-08-22 18:00:00+00:00,-579.1782675897555
2025-08-22 19:00:00+00:00,-579.1782675897555
2025-08-25 13:00:00+00:00,-579.1782675897555
2025-08-25 14:00:00+00:00,-579.1782675897555
2025-08-25 15:00:00+00:00,-579.1782675897555
2025-08-25 16:00:00+00:00,-579.1782675897555
2025-08-25 17:00:00+00:00,-579.1782675897555
2025-08-25 18:00:00+00:00,-579.1782675897555
2025-08-25 19:00:00+00:00,-579.1782675897555
2025-08-26 13:00:00+00:00,-579.1782675897555
2025-08-26 14:00:00+00:00,-579.1782675897555
2025-08-26 15:00:00+00:00,-579.1782675897555
2025-08-26 16:00:00+00:00,-579.1782675897555
2025-08-26 17:00:00+00:00,-579.1782675897555
2025-08-26 18:00:00+00:00,-579.1782675897555
2025-08-26 19:00:00+00:00,-579.1782675897555
2025-08-27 13:00:00+00:00,-579.1782675897555
2025-08-27 14:00:00+00:00,-579.1782675897555
2025-08-27 15:00:00+00:00,-579.1782675897555
2025-08-27 16:00:00+00:00,-579.1782675897555
2025-08-27 17:00:00+00:00,-579.1782675897555
2025-08-27 18:00:00+00:00,-579.1782675897555
2025-08-27 19:00:00+00:00,-579.1782675897555
2025-08-28 13:00:00+00:00,-579.1782675897555
2025-08-28 14:00:00+00:00,-579.1782675897555
2025-08-28 15:00:00+00:00,-579.1782675897555
2025-08-28 16:00:00+00:00,-579.1782675897555
2025-08-28 17:00:00+00:00,-579.1782675897555
2025-08-28 18:00:00+00:00,-579.1782675897555
2025-08-28 19:00:00+00:00,-579.1782675897555
2025-08-29 13:00:00+00:00,-579.1782675897555
2025-08-29 14:00:00+00:00,-579.1782675897555
2025-08-29 15:00:00+00:00,-579.1782675897555
2025-08-29 16:00:00+00:00,-579.1782675897555
2025-08-29 17:00:00+00:00,-579.1782675897555
2025-08-29 18:00:00+00:00,-579.1782675897555
2025-08-29 19:00:00+00:00,-579.1782675897555
2025-09-02 13:00:00+00:00,-579.1782675897555
2025-09-02 14:00:00+00:00,-579.1782675897555
2025-09-02 15:00:00+00:00,-579.1782675897555
2025-09-02 16:00:00+00:00,-579.1782675897555
2025-09-02 17:00:00+00:00,-579.1782675897555
2025-09-02 18:00:00+00:00,-579.1782675897555
2025-09-02 19:00:00+00:00,-579.1782675897555
2025-09-03 13:00:00+00:00,-579.1782675897555
2025-09-03 14:00:00+00:00,-579.1782675897555
2025-09-03 15:00:00+00:00,-579.1782675897555
2025-09-03 16:00:00+00:00,-579.1782675897555
2025-09-03 17:00:00+00:00,-579.1782675897555
2025-09-03 18:00:00+00:00,-579.1782675897555
2025-09-03 19:00:00+00:00,-579.1782675897555
2025-09-04 13:00:00+00:00,-579.1782675897555
2025-09-04 14:00:00+00:00,-579.1782675897555
2025-09-04 15:00:00+00:00,-579.1782675897555
2025-09-04 16:00:00+00:00,-579.1782675897555
2025-09-04 17:00:00+00:00,-579.1782675897555
2025-09-04 18:00:00+00:00,-579.1782675897555
2025-09-04 19:00:00+00:00,-579.1782675897555
2025-09-05 13:00:00+00:00,-579.1782675897555
2025-09-05 14:00:00+00:00,-579.1782675897555
2025-09-05 15:00:00+00:00,-579.1782675897555
2025-09-05 16:00:00+00:00,-579.1782675897555
2025-09-05 17:00:00+00:00,-579.1782675897555
2025-09-05 18:00:00+00:00,-579.1782675897555
2025-09-05 19:00:00+00:00,-579.1782675897555
2025-09-08 13:00:00+00:00,-579.1782675897555
2025-09-08 14:00:00+00:00,-579.1782675897555
2025-09-08 15:00:00+00:00,-579.1782675897555
2025-09-08 16:00:00+00:00,-579.1782675897555
2025-09-08 17:00:00+00:00,-579.1782675897555
2025-09-08 18:00:00+00:00,-579.1782675897555
2025-09-08 19:00:00+00:00,-579.1782675897555
2025-09-09 13:00:00+00:00,-579.1782675897555
2025-09-09 14:00:00+00:00,-579.1782675897555
2025-09-09 15:00:00+00:00,-579.1782675897555
2025-09-09 16:00:00+00:00,-579.1782675897555
2025-09-09 17:00:00+00:00,-579.1782675897555
2025-09-09 18:00:00+00:00,-579.1782675897555
2025-09-09 19:00:00+00:00,-579.1782675897555
2025-09-10 13:00:00+00:00,-579.1782675897555
2025-09-10 14:00:00+00:00,-579.1782675897555
2025-09-10 15:00:00+00:00,-579.1782675897555
2025-09-10 16:00:00+00:00,-579.1782675897555
2025-09-10 17:00:00+00:00,-579.1782675897555
2025-09-10 18:00:00+00:00,-579.1782675897555
2025-09-10 19:00:00+00:00,-579.1782675897555
2025-09-11 13:00:00+00:00,-579.1782675897555
2025-09-11 14:00:00+00:00,-579.1782675897555
2025-09-11 15:00:00+00:00,-579.1782675897555
2025-09-11 16:00:00+00:00,-579.1782675897555
2025-09-11 17:00:00+00:00,-579.1782675897555
2025-09-11 18:00:00+00:00,-579.1782675897555
2025-09-11 19:00:00+00:00,-579.1782675897555
2025-09-12 13:00:00+00:00,-579.1782675897555
2025-09-12 14:00:00+00:00,-579.1782675897555
2025-09-12 15:00:00+00:00,-579.1782675897555
2025-09-12 16:00:00+00:00,-579.1782675897555
2025-09-12 17:00:00+00:00,-579.1782675897555
2025-09-12 18:00:00+00:00,-579.1782675897555
2025-09-12 19:00:00+00:00,-579.1782675897555
2025-09-15 13:00:00+00:00,-579.1782675897555
2025-09-15 14:00:00+00:00,-579.1782675897555
2025-09-15 15:00:00+00:00,-579.1782675897555
2025-09-15 16:00:00+00:00,-579.1782675897555
2025-09-15 17:00:00+00:00,-579.1782675897555
2025-09-15 18:00:00+00:00,-579.1782675897555
2025-09-15 19:00:00+00:00,-579.1782675897555
2025-09-16 13:00:00+00:00,-579.1782675897555
2025-09-16 14:00:00+00:00,-579.1782675897555
2025-09-16 15:00:00+00:00,-579.1782675897555
2025-09-16 16:00:00+00:00,-579.1782675897555
2025-09-16 17:00:00+00:00,-579.1782675897555
2025-09-16 18:00:00+00:00,-579.1782675897555
2025-09-16 19:00:00+00:00,-579.1782675897555
2025-09-17 13:00:00+00:00,-579.1782675897555
2025-09-17 14:00:00+00:00,-579.1782675897555
2025-09-17 15:00:00+00:00,-579.1782675897555
2025-09-17 16:00:00+00:00,-579.1782675897555
2025-09-17 17:00:00+00:00,-579.1782675897555
2025-09-17 18:00:00+00:00,-579.1782675897555
2025-09-17 19:00:00+00:00,-579.1782675897555
2025-09-18 13:00:00+00:00,-579.1782675897555
2025-09-18 14:00:00+00:00,-579.1782675897555
2025-09-18 15:00:00+00:00,-579.1782675897555
2025-09-18 16:00:00+00:00,-579.1782675897555
2025-09-18 17:00:00+00:00,-579.1782675897555
2025-09-18 18:00:00+00:00,-579.1782675897555
2025-09-18 19:00:00+00:00,-579.1782675897555
2025-09-19 13:00:00+00:00,-579.1782675897555
2025-09-19 14:00:00+00:00,-579.1782675897555
2025-09-19 15:00:00+00:00,-579.1782675897555
2025-09-19 16:00:00+00:00,-579.1782675897555
2025-09-19 17:00:00+00:00,-579.1782675897555
2025-09-19 18:00:00+00:00,-579.1782675897555
2025-09-19 19:00:00+00:00,-579.1782675897555
2025-09-22 13:00:00+00:00,-579.1782675897555
2025-09-22 14:00:00+00:00,-579.1782675897555
2025-09-22 15:00:00+00:00,-579.1782675897555
2025-09-22 16:00:00+00:00,-579.1782675897555
2025-09-22 17:00:00+00:00,-579.1782675897555
2025-09-22 18:00:00+00:00,-579.1782675897555
2025-09-22 19:00:00+00:00,-579.1782675897555
2025-09-23 13:00:00+00:00,-579.1782675897555
2025-09-23 14:00:00+00:00,-579.1782675897555
2025-09-23 15:00:00+00:00,-579.1782675897555
2025-09-23 16:00:00+00:00,-579.1782675897555
2025-09-23 17:00:00+00:00,-579.1782675897555
2025-09-23 18:00:00+00:00,-579.1782675897555
2025-09-23 19:00:00+00:00,-579.1782675897555
2025-09-24 13:00:00+00:00,-579.1782675897555
2025-09-24 14:00:00+00:00,-579.1782675897555
2025-09-24 15:00:00+00:00,-579.1782675897555
2025-09-24 16:00:00+00:00,-579.1782675897555
2025-09-24 17:00:00+00:00,-579.1782675897555
2025-09-24 18:00:00+00:00,-579.1782675897555
2025-09-24 19:00:00+00:00,-579.1782675897555
2025-09-25 13:00:00+00:00,-579.1782675897555
2025-09-25 14:00:00+00:00,-579.1782675897555
2025-09-25 15:00:00+00:00,-579.1782675897555
2025-09-25 16:00:00+00:00,-579.1782675897555
2025-09-25 17:00:00+00:00,-579.1782675897555
2025-09-25 18:00:00+00:00,-579.1782675897555
2025-09-25 19:00:00+00:00,-579.1782675897555
2025-09-26 13:00:00+00:00,-579.1782675897555
2025-09-26 14:00:00+00:00,-579.1782675897555
2025-09-26 15:00:00+00:00,-579.1782675897555
2025-09-26 16:00:00+00:00,-579.1782675897555
2025-09-26 17:00:00+00:00,-579.1782675897555
2025-09-26 18:00:00+00:00,-579.1782675897555
2025-09-26 19:00:00+00:00,-579.1782675897555
2025-09-29 13:00:00+00:00,-579.1782675897555
2025-09-29 14:00:00+00:00,-579.1782675897555
2025-09-29 15:00:00+00:00,-579.1782675897555
2025-09-29 16:00:00+00:00,-579.1782675897555
2025-09-29 17:00:00+00:00,-579.1782675897555
2025-09-29 18:00:00+00:00,-579.1782675897555
2025-09-29 19:00:00+00:00,-579.1782675897555
2025-09-30 13:00:00+00:00,-579.1782675897555
2025-09-30 14:00:00+00:00,-579.1782675897555
2025-09-30 15:00:00+00:00,-579.1782675897555
2025-09-30 16:00:00+00:00,-579.1782675897555
2025-09-30 17:00:00+00:00,-579.1782675897555
2025-09-30 18:00:00+00:00,-579.1782675897555
2025-09-30 19:00:00+00:00,-579.1782675897555
2025-10-01 13:00:00+00:00,-579.1782675897555
2025-10-01 14:00:00+00:00,-579.1782675897555
2025-10-01 15:00:00+00:00,-579.1782675897555
2025-10-01 16:00:00+00:00,-579.1782675897555
2025-10-01 17:00:00+00:00,-579.1782675897555
2025-10-01 18:00:00+00:00,-579.1782675897555
2025-10-01 19:00:00+00:00,-579.1782675897555
2025-10-02 13:00:00+00:00,-579.1782675897555
2025-10-02 14:00:00+00:00,-579.1782675897555
2025-10-02 15:00:00+00:00,-579.1782675897555
2025-10-02 16:00:00+00:00,-579.1782675897555
2025-10-02 17:00:00+00:00,-579.1782675897555
2025-10-02 18:00:00+00:00,-579.1782675897555
2025-10-02 19:00:00+00:00,-579.1782675897555
2025-10-03 13:00:00+00:00,-579.1782675897555
2025-10-03 14:00:00+00:00,-579.1782675897555
2025-10-03 15:00:00+00:00,-579.1782675897555
2025-10-03 16:00:00+00:00,-579.1782675897555
2025-10-03 17:00:00+00:00,-579.1782675897555
2025-10-03 18:00:00+00:00,-579.1782675897555
2025-10-03 19:00:00+00:00,-579.1782675897555
2025-10-06 13:00:00+00:00,-579.1782675897555
2025-10-06 14:00:00+00:00,-579.1782675897555
2025-10-06 15:00:00+00:00,-579.1782675897555
2025-10-06 16:00:00+00:00,-579.1782675897555
2025-10-06 17:00:00+00:00,-579.1782675897555
2025-10-06 18:00:00+00:00,-579.1782675897555
2025-10-06 19:00:00+00:00,-579.1782675897555
2025-10-07 13:00:00+00:00,-579.1782675897555
2025-10-07 14:00:00+00:00,-579.1782675897555
2025-10-07 15:00:00+00:00,-579.1782675897555
2025-10-07 16:00:00+00:00,-579.1782675897555
2025-10-07 17:00:00+00:00,-579.1782675897555
2025-10-07 18:00:00+00:00,-579.1782675897555
2025-10-07 19:00:00+00:00,-579.1782675897555
2025-10-08 13:00:00+00:00,-579.1782675897555
2025-10-08 14:00:00+00:00,-579.1782675897555
2025-10-08 15:00:00+00:00,-579.1782675897555
2025-10-08 16:00:00+00:00,-579.1782675897555
2025-10-08 17:00:00+00:00,-579.1782675897555
2025-10-08 18:00:00+00:00,-579.1782675897555
2025-10-08 19:00:00+00:00,-579.1782675897555
2025-10-09 13:00:00+00:00,-579.1782675897555
2025-10-09 14:00:00+00:00,-579.1782675897555
2025-10-09 15:00:00+00:00,-579.1782675897555
2025-10-09 16:00:00+00:00,-579.1782675897555
2025-10-09 17:00:00+00:00,-579.1782675897555
2025-10-09 18:00:00+00:00,-579.1782675897555
2025-10-09 19:00:00+00:00,-579.1782675897555
2025-10-10 13:00:00+00:00,-579.1782675897555
2025-10-10 14:00:00+00:00,-579.1782675897555
2025-10-10 15:00:00+00:00,-579.1782675897555
2025-10-10 16:00:00+00:00,-579.1782675897555
2025-10-10 17:00:00+00:00,-579.1782675897555
2025-10-10 18:00:00+00:00,-579.1782675897555
2025-10-10 19:00:00+00:00,-579.1782675897555
2025-10-13 13:00:00+00:00,-579.1782675897555
2025-10-13 14:00:00+00:00,-579.1782675897555
2025-10-13 15:00:00+00:00,-579.1782675897555
2025-10-13 16:00:00+00:00,-579.1782675897555
2025-10-13 17:00:00+00:00,-579.1782675897555
2025-10-13 18:00:00+00:00,-579.1782675897555
2025-10-13 19:00:00+00:00,-579.1782675897555
2025-10-14 13:00:00+00:00,-579.1782675897555
2025-10-14 14:00:00+00:00,-579.1782675897555
2025-10-14 15:00:00+00:00,-579.1782675897555
2025-10-14 16:00:00+00:00,-579.1782675897555
2025-10-14 17:00:00+00:00,-579.1782675897555
2025-10-14 18:00:00+00:00,-579.1782675897555
2025-10-14 19:00:00+00:00,-579.1782675897555
2025-10-15 13:00:00+00:00,-579.1782675897555
2025-10-15 14:00:00+00:00,-579.1782675897555
2025-10-15 15:00:00+00:00,-579.1782675897555
2025-10-15 16:00:00+00:00,-579.1782675897555
2025-10-15 17:00:00+00:00,-579.1782675897555
2025-10-15 18:00:00+00:00,-579.1782675897555
2025-10-15 19:00:00+00:00,-579.1782675897555
2025-10-16 13:00:00+00:00,-579.1782675897555
2025-10-16 14:00:00+00:00,-579.1782675897555
2025-10-16 15:00:00+00:00,-579.1782675897555
2025-10-16 16:00:00+00:00,-579.1782675897555
2025-10-16 17:00:00+00:00,-579.1782675897555
2025-10-16 18:00:00+00:00,-579.1782675897555
2025-10-16 19:00:00+00:00,-579.1782675897555
2025-10-17 13:00:00+00:00,-579.1782675897555
2025-10-17 14:00:00+00:00,-579.1782675897555
2025-10-17 15:00:00+00:00,-579.1782675897555
2025-10-17 16:00:00+00:00,-579.1782675897555
2025-10-17 17:00:00+00:00,-579.1782675897555
2025-10-17 18:00:00+00:00,-579.1782675897555
2025-10-17 19:00:00+00:00,-579.1782675897555
2025-10-20 13:00:00+00:00,-579.1782675897555
2025-10-20 14:00:00+00:00,-579.1782675897555
2025-10-20 15:00:00+00:00,-579.1782675897555
2025-10-20 16:00:00+00:00,-579.1782675897555
2025-10-20 17:00:00+00:00,-579.1782675897555
2025-10-20 18:00:00+00:00,-579.1782675897555
2025-10-20 19:00:00+00:00,-579.1782675897555
2025-10-21 13:00:00+00:00,-579.1782675897555
2025-10-21 14:00:00+00:00,-579.1782675897555
2025-10-21 15:00:00+00:00,-579.1782675897555
2025-10-21 16:00:00+00:00,-579.1782675897555
2025-10-21 17:00:00+00:00,-579.1782675897555
2025-10-21 18:00:00+00:00,-579.1782675897555
2025-10-21 19:00:00+00:00,-579.1782675897555
2025-10-22 13:00:00+00:00,-579.1782675897555
2025-10-22 14:00:00+00:00,-579.1782675897555
2025-10-22 15:00:00+00:00,-579.1782675897555
2025-10-22 16:00:00+00:00,-579.1782675897555
2025-10-22 17:00:00+00:00,-579.1782675897555
2025-10-22 18:00:00+00:00,-579.1782675897555
2025-10-22 19:00:00+00:00,-579.1782675897555
